Delta,Theta,Alpha,Beta,Gamma
-8.572498556735993e-09,-1.4507564441660975e-08,-1.4507564441660968e-08,-4.801323397924896e-06,-8.670647867676143e-05
-7.671571926883028e-08,-1.2932045844720202e-07,-1.2874445578836783e-07,-3.967925459944103e-05,-0.0005770559122775789
-3.468020424091228e-07,-5.815962758018751e-07,-5.753461549160109e-07,-0.00016186192841909948,-0.001715571638433614
-1.0802823366525836e-06,-1.7998428155061332e-06,-1.765203243507718e-06,-0.00044350015612008517,-0.002911237996085181
-2.6550995325715446e-06,-4.388444462391471e-06,-4.255941512356331e-06,-0.000933376155280814,-0.0026941376772164675
-5.551853474797635e-06,-9.090158497052239e-06,-8.692808752676854e-06,-0.0016246964840380634,3.7822226682012873e-05
-1.034052584964178e-05,-1.6747619474310462e-05,-1.5745346729025702e-05,-0.0024429847497580127,0.004654288677030078
-1.766988531324112e-05,-2.8268143873848437e-05,-2.6046549488566418e-05,-0.0032545602467790465,0.008740134463607024
-2.8258115703126882e-05,-4.4589920893277835e-05,-4.0134826955272135e-05,-0.003890011498988899,0.00956349825459443
-4.2880045645752744e-05,-6.664230979211956e-05,-5.839356661017369e-05,-0.004173816311818688,0.0059908686346670705
-6.234684849250105e-05,-9.529401297892776e-05,-8.09842064819263e-05,-0.003952597057838791,-0.0005924413830705161
-8.747827882050754e-05,-0.00013129031814833214,-0.00010777640879999389,-0.0031187329612640436,-0.007052627503074469
-0.00011907205473494858,-0.00017518847033032441,-0.00013828691441286013,-0.0016293889625772229,-0.010425462568744055
-0.00015787606881763783,-0.000227301935882184,-0.00017164004053517453,0.0004790958945995054,-0.009640207659149469
-0.00020456586435623866,-0.0002876584874395335,-0.00020655614601712167,0.0030841955499987727,-0.005909042603446825
-0.0002597251008048618,-0.00035596873481043,-0.00024136506295034313,0.00598211200836375,-0.0016440092434963603
-0.0003238245433328572,-0.00043159790007558333,-0.00027403679598732896,0.008907374048750543,0.0012081375219277523
-0.0003971971084839575,-0.0005135370959364335,-0.0003022247038733336,0.011564909714896402,0.00221560279852729
-0.00048001077901739866,-0.0006003777087351173,-0.0003233233632081261,0.013667513858627453,0.0022768359445595686
-0.000572244229623095,-0.0006902975247506643,-0.00033454789781585707,0.014970122107757595,0.0025423503510899224
-0.0006736697373390044,-0.0007810664549654886,-0.00033304003926720136,0.015294776486393758,0.0033802627520315848
-0.0007838452773478729,-0.0008700747286609253,-0.00031600024660749304,0.014544433641550586,0.004154887427280319
-0.0009021151474118409,-0.0009543816686457097,-0.00028083951921594597,0.012706971784309348,0.0038722202224907
-0.0010276176847059714,-0.0010307815276539712,-0.0002253422006889547,0.009851691694880758,0.002086816759835638
-0.0011592992318503327,-0.0010958836474212193,-0.00014783146468003904,0.006120148366998869,-0.0006540076274527083
-0.0012959339919045095,-0.0011462048332985403,-4.732970237885935e-05,0.001712763963410774,-0.003120094530028617
-0.0014361490607351457,-0.001178271080820382,7.629457023316163e-05,-0.0031271660896812596,-0.00417359662643898
-0.0015784534135413896,-0.001188724822288278,0.00022220220330290837,-0.00813039880775007,-0.0034375791441510015
-0.0017212699068971742,-0.0011744343199622243,0.00038848903238848014,-0.013018522029504546,-0.0014451116167251354
-0.0018629702313403143,-0.0011326033341744098,0.0005721268747695776,-0.017520287365665462,0.0007456853154619214
-0.002001912850040941,-0.0010608793881997519,0.0007689438213340936,-0.021387142377636593,0.002166322266934479
-0.002136482369136722,-0.0009574563022317937,0.000973649142190966,-0.024406526731968674,0.002414031975631206
-0.0022651264758039996,-0.0008211629154666764,0.0011799104471032316,-0.026410655657679097,0.0017677819320616659
-0.002386385899603235,-0.0006515291207172025,0.001380489822414451,-0.027279496898167364,0.0009332859557425185
-0.00249891524749553,-0.00044882491399598096,0.0015674391174212198,-0.026939489381297057,0.0005744012116278474
-0.0026014967365970464,-0.00021407574447328254,0.0017323449906734747,-0.025362141501532303,0.0008821666567394512
-0.0026930514488224216,5.093782460430984e-05,0.0018666079735426967,-0.022566378347114138,0.0014335052214168508
-0.0027726512886314357,0.00034369048346988827,0.001961741107483364,-0.018624861862021478,0.0014636694671704132
-0.002839530293681204,0.0006609345575072351,0.0020096808044357574,-0.013670038077547927,0.0004292828575345944
-0.0028930902628966876,0.0009987424399355161,0.002003108274619768,-0.007894112086311363,-0.0014997290287705309
-0.0029328963940229986,0.0013525754446553333,0.0019357778057515016,-0.001540138822048385,-0.0034097847039663265
-0.002958663630662589,0.0017173764434753127,0.0018028388279495826,0.005113258314970642,-0.00418538418349445
-0.0029702397106893697,0.0020876743610506406,0.0016011294825172017,0.01176773772367827,-0.003295903591410536
-0.002967591991768572,0.002457686801869387,0.0013294184678161699,0.018117369262634388,-0.0012453938332043853
-0.002950800992941822,0.002821414397175197,0.0009885809097699694,0.02385772323705722,0.0007113405951144575
-0.002920057667507401,0.003172730785697002,0.0005817064388158733,0.028696631572356104,0.0014405751397105144
-0.0028756586038189086,0.0035054769581302375,0.00011414454655772048,0.03237081650429453,0.0007554635232816919
-0.002817995711497349,0.0038135644927105995,-0.00040651010980620396,0.034667847965951154,-0.0004521357334480023
-0.0027475420421292874,0.0040910833606621734,-0.0009704969868446126,0.0354478922404041,-0.0009056436602465469
-0.0026648386022234604,0.004332404536102259,-0.001566041679545386,0.034658515348102915,5.745646695153537e-05
-0.002570485746366434,0.004532270043061124,-0.002179584312331312,0.03233909351565667,0.001957670061677271
-0.0024651385636340443,0.004685870474903644,-0.002796078209394573,0.028616118352332475,0.0035256096977968605
-0.0023495025820400427,0.004788915452449758,-0.003399345222263121,0.023693048211911677,0.003648354255573269
-0.002224326677098288,0.004837701541097253,-0.003972473405764764,0.017837168608354843,0.002169235918066901
-0.0020903931641102,0.00482917683959784,-0.004498246874889852,0.011363368635673589,-5.108275559324858e-05
-0.001948507268065207,0.004760997729772274,-0.004959600508143174,0.004613916564838822,-0.0017979261830824097
-0.0017994873177206187,0.004631574874907477,-0.005340089822402752,-0.002064874251775542,-0.002328574884198961
-0.0016441542950599809,0.004440110337810382,-0.0056243610520695575,-0.008345799122014736,-0.00174575598150906
-0.00148331804172143,0.0041866300096859415,-0.005798604072637556,-0.013940183257508268,-0.0007356302911697519
-0.0013177593730596567,0.003872012192913631,-0.005850974608478526,-0.018612398494491676,5.167269498666703e-06
-0.001148211028845533,0.0034980069435187854,-0.005771979222736312,-0.022190998760613295,0.00017010659435461734
-0.0009753422004760405,0.0030672379042497224,-0.0055548203778595946,-0.024578184769426754,-0.00015121287195472664
-0.0007997492448394551,0.0025831823534403246,-0.005195695738124868,-0.025756636171515013,-0.0007052447479986961
-0.0006219508127564242,0.0020501330137579184,-0.004694039050704007,-0.025789927743367233,-0.001250647800911992
-0.0004423830398131307,0.0014731497386290164,-0.004052686749596231,-0.024813036170234275,-0.0015631625335771448
-0.0002613922722229022,0.0008580060877634966,-0.003277959452224544,-0.023013397068487162,-0.0014058404937343334
-7.922757057314244e-05,0.00021112767353770892,-0.0023796579193618504,-0.020607617707887303,-0.0006374903642349259
0.00010396139184220944,-0.0004604864091090894,-0.0013709808514026439,-0.017820364944001833,0.0005786054082892566
0.0002881166931582043,-0.0011493652007825033,-0.00026837125823932483,-0.014868879260302392,0.0017105873846642206
0.00047325546760883746,-0.001847687699837342,0.0009087091635596872,-0.011951697886380525,0.002124066296064448
0.000659449312460368,-0.00254741417356536,0.002138084335994031,-0.009237746261618263,0.0015529095127327051
0.0008468051631919096,-0.0032404159361062524,0.003395251694524009,-0.006853926085670051,0.00038683004988386105
0.0010354491503037806,-0.003918599329737883,0.0046538494447157085,-0.004873593451451948,-0.000532704714006456
0.0012255109359477858,-0.0045740266361367216,0.005886189644978914,-0.0033107367408131386,-0.000516186009205323
0.0014171056969639816,-0.005199037221198774,0.007063841086756358,-0.002122905683379027,0.0004368357095701064
0.0016103144471573247,-0.005786366181595318,0.008158250532687724,-0.001221616707810735,0.0016215761576145048
0.0018051671738810871,-0.006329251431487664,0.009141396017835273,-0.0004859971033774481,0.002166211511492761
0.0020016334179368232,-0.006821520240642224,0.009986464703178531,0.0002236796598297758,0.0016868048301113769
0.002199621038530334,-0.00725765330250877,0.010668539646087313,0.0010524645395374108,0.000522643223685502
0.0023989794667077483,-0.007632832319365937,0.011165271292745796,0.0021348600438783577,-0.0006154739630540548
0.0025995028426058025,-0.007942978774624146,0.011457507902552837,0.003575760146049736,-0.0012437187466170362
0.0028009318128275314,-0.008184785809351502,0.011529865749810533,0.005431411928907224,-0.001419358777962858
0.0030029570830835102,-0.008355737834963944,0.011371228645339713,0.00769631025550932,-0.001529650208523108
0.0032052287334630018,-0.008454111212012822,0.010975169233779574,0.01030038492989026,-0.0018082118366637965
0.0034073715796896745,-0.008478956013534295,0.010340279556367377,0.013115953364521298,-0.0020685632524449584
0.0036090016272652525,-0.008430068028157479,0.009470391296517899,0.015969710602822568,-0.0019113383639831245
0.003809736585311426,-0.008307963632545228,0.008374665367130342,0.018654990122056427,-0.0011880354844240391
0.004009196443352419,-0.00811386468830203,0.00706753939592405,0.02094340110338569,-0.00024418801252415814
0.0042069957518828,-0.00784969070389851,0.0055685353854825195,0.02259897345836576,0.00033123810457820203
0.00440273281083915,-0.007518049319050652,0.003901939693713976,0.023398278733361245,0.00024540110021624987
0.0045959798355637025,-0.007122218210301427,0.002096368668906128,0.02315617448692707,-0.00017429887295150032
0.0047862739960822,-0.006666118800173374,0.00018422877660589256,0.02175209716514738,-0.00020616566806276306
0.004973106238956834,-0.006154287302101416,-0.0017989225189345677,0.019150185628614324,0.0006490773718651786
0.005155905840921806,-0.005591846783319621,-0.003815104498853787,0.015409131623050472,0.0021881090155549576
0.005334022652485947,-0.004984477018127051,-0.005824709731462872,0.010682035573708178,0.0035901547292257413
0.005506712166361367,-0.004338373580464573,-0.007787342505175731,0.005208998781934239,0.004013170178316891
0.0056731279380965085,-0.003660188955977447,-0.009662672612487449,-0.0006958130701526672,0.0032084820798742005
0.005832322037502128,-0.002956955385850739,-0.011411284657188972,-0.006663489336184179,0.0016539429004806478
0.005983250503524631,-0.0022359957386888247,-0.012995509880641682,-0.012297834845688001,0.00012689506136027835
0.006124780264716776,-0.0015048296604000342,-0.014380228882727926,-0.017210393150935917,-0.0008913672339492903
0.006255696717156292,-0.0007710775764969985,-0.01553362950704519,-0.021058455305674528,-0.0014769911194571564
0.006374714343607736,-4.2359699520459575e-05,-0.016427899631587313,-0.023579024072846223,-0.002013182497415446
0.006480493467171029,0.0006738138755962025,-0.01703983495052971,-0.02461276131286216,-0.0027044773408023298
0.00657166389877296,0.0013701617259854286,-0.0173513479514399,-0.024115641256539873,-0.0033142631945692167
0.006646852892194696,0.0020397522168520556,-0.017349872363854022,-0.022159630285296536,-0.003355077528425056
0.006704713050186963,0.0026761181321586533,-0.017028662580511417,-0.018925048862879636,-0.002547008914386187
0.006743946582441642,0.003273357299770577,-0.01638698815192043,-0.014686349850810982,-0.0011296090468020943
0.006763324509507904,0.0038262157525075623,-0.015430221404590343,-0.00979157714056381,0.0002493325100320803
0.006761701300956,0.004330153508740327,-0.014169814716823121,-0.0046353839844284605,0.0009818814731667163
0.006738026219678952,0.004781394648709239,-0.012623164536759464,0.00037352332753350575,0.0009283021363190868
0.006691352679972327,0.0051769636236826885,-0.010813361244980148,0.004848137086366528,0.0005004866147888361
0.006620846788909844,0.005514709654972679,-0.008768826416203537,0.008458536964475608,0.00035201102922878156
0.006525795886922452,0.005793320597495636,-0.006522841923929044,0.010962734854900928,0.0009095668632928414
0.006405616972244308,0.0060123261625933296,-0.004112979177305898,0.012228657627521995,0.002066039512426645
0.006259863647554248,0.006172088407016013,-0.001580440976192106,0.012243585217144772,0.0032203503709346136
0.00608822980914183,0.006273776880897407,0.0010306690931118025,0.01110931545431778,0.0036237453039714047
0.0058905496958595914,0.00631932844301206,0.003674135840142322,0.009024504997162166,0.0028256944908825964
0.005666796592178611,0.006311396492063668,0.006302469791957137,0.006258687089343871,0.0009729419340059759
0.005417084309379549,0.0062532975056574635,0.008867784178827573,0.0031234836302259333,-0.0012089431112212137
0.00514167453651606,0.006148960883672064,0.011322700062193321,-5.5267773779268854e-05,-0.0027698044912998904
0.0048409894238623935,0.006002881560192202,0.013621260543484651,-0.0029639349529254617,-0.003061573579405603
0.0045156250152034545,0.005820068411117156,0.015719827988280557,-0.005327322271608217,-0.002140696695040849
0.0041663605068953105,0.005605980550429181,0.017577937411445,-0.006934620053418549,-0.0007670217561313002
0.0037941615419638734,0.005366449390196566,0.01915908583523699,-0.007661500837176627,6.29158966026212e-05
0.0034001802948769085,0.005107592299852957,0.0204314467554767,-0.0074824091792198896,-0.00021132712500017924
0.002985757108762558,0.004835727125390792,0.021368503766235863,-0.006468521730387586,-0.001294565184386718
0.002552426090051095,0.004557292647940382,0.02194959466936772,-0.00477178477861962,-0.0022107751007397203
0.0021019222546974953,0.00427877170908449,0.022160350615871616,-0.0026005459793097723,-0.0020034916603842
0.0016361846179625155,0.004006608307717303,0.021993011399720517,-0.00019394953405316178,-0.000476194501226109
0.0011573507149571205,0.003747112082829405,0.021446602722982492,0.0022004166219178976,0.001593239189486973
0.0006677424071799844,0.003506351339547938,0.0205269720216697,0.0043455431083300015,0.0029644983409337447
0.00016984668937650738,0.0032900425140863984,0.019246689260756625,0.006032970729562113,0.0028174155710312173
-0.0003337045945308931,0.003103444257658494,0.017624822188714497,0.007100621643960108,0.0013430766871726915
-0.0008401554684785528,0.0029512586236827253,0.015686592298620055,0.007448070762178332,-0.000409704790570983
-0.001346649753313859,0.0028375358880405837,0.013462914081841321,0.007045013395749875,-0.001310926956806612
-0.0018502613505450452,0.002765578950660676,0.01098982190619317,0.005930337819070052,-0.0009453229637187022
-0.0023480309807158615,0.0027378485433739086,0.008307796457686558,0.004203093660159834,0.00017393652121292972
-0.002837005804248667,0.002755876708182961,0.005461010992287175,0.0020095238710613264,0.001095910063954183
-0.0033142773122069196,0.0028201975604381603,0.0024965207093306336,-0.00047004823863380844,0.0011925194477695389
-0.003777015249139052,0.0029302999357034946,-0.000536584977728582,-0.0030336044260524143,0.0005758134619637596
-0.004222498807117018,0.0030846002323070337,-0.0035880533665135547,-0.005470776955101099,-0.00011585063691556944
-0.004648147680424853,0.00328043121535253,-0.006607351018216379,-0.007578650394396209,-0.00031685377916101335
-0.005051553557259004,0.0035140458194854486,-0.009544543000620475,-0.009178821798582747,1.5243438876960469e-05
-0.00543050903018512,0.003780640902196258,-0.012351148121688643,-0.010131900607460062,0.0004530144064472148
-0.005783028885669633,0.004074408962303728,-0.014980947022872892,-0.010345629931854734,0.0005510180360983327
-0.006107360094107583,0.00438862297614494,-0.01739072407668508,-0.009775722469749224,0.00025896415758117585
-0.006401980636190587,0.004715752439476363,-0.019540932739359026,-0.008422176946518171,-7.163903420129259e-05
-0.006665590868034059,0.005047602206838369,-0.02139628225069379,-0.00632554809518993,-7.128850875898385e-05
-0.006897102226667905,0.005375463657441457,-0.022926247190923562,-0.00356625886449799,0.0002387053145566903
-0.007095626514869127,0.0056902703784392356,-0.024105500007666827,-0.00026673334936908136,0.00039491105920202643
-0.0072604663533157275,0.00598275514914128,-0.024914263109214345,0.003406782811313865,-0.00013389621307310928
-0.00739110551179507,0.006243608260494232,-0.025338574937433165,0.007246650695266473,-0.0014464728666439975
-0.007487197611134397,0.0064636375819172795,-0.02537046523810059,0.011013007757896086,-0.0029983176986105617
-0.0075485528319248875,0.006633928826401359,-0.025008038005574985,0.014449588753994207,-0.003876035607864328
-0.007575123922012924,0.006746001683788249,-0.0242554646775896,0.017303762451231157,-0.00338338350313335
-0.007566994140888772,0.006791955346884052,-0.023122893512655902,0.019347165190324696,-0.0015327324802421444
-0.007524370195439841,0.006764596524533286,-0.02162628252321402,0.020393594203293012,0.0009000849119605078
-0.0074475823120342755,0.006657544970043717,-0.019787162193305407,0.020312335571718652,0.0028034155792999913
-0.007337091428419381,0.0064653156528844,-0.017632330760396157,0.01903710866832383,0.003372512033028948
-0.0071935009227248525,0.00618338142169641,-0.015193480798179745,0.01657220771840384,0.002570170834475025
-0.007017568743027073,0.005808222853176182,-0.012506753877672933,0.012997254877906542,0.0011264533833937381
-0.006810216335001497,0.0053373711148412845,-0.009612222140856793,0.008470194364188915,7.886919241992249e-05
-0.006572533138158813,0.004769445591827759,-0.006553301124158492,0.003225937496265022,0.00012871475297695101
-0.006305777996619121,0.0041041836394364595,-0.0033761040137061382,-0.0024328078898467114,0.0012024245483333328
-0.006011379749005686,0.0033424583591235785,-0.00012875025222666256,-0.008154485604948308,0.002491530440748383
-0.00569093795914684,0.002486282691335559,0.0031393599742946922,-0.013566144930803235,0.002958498952163968
-0.005346222461244016,0.0015388021736419425,0.006378297089481919,-0.0183051386807821,0.002001949694713932
-0.004979169104448757,0.0005042809663007772,0.00953837254049313,-0.022049849217874198,-0.0001394215880050667
-0.004591869804738965,-0.0006119155247286846,0.012570919464482204,-0.024545527002924443,-0.0025087729228866224
-0.004186556967939708,-0.0018033414942924537,0.015429070720221863,-0.02562349461302121,-0.0040029725671097685
-0.0037655838059566468,-0.003062497614469537,0.018068518463114202,-0.02521333746853332,-0.004019843885195238
-0.0033314020245098536,-0.004380866359617785,0.020448239502526035,-0.02334777846957987,-0.0027628986680012795
-0.0028865374239265026,-0.005748956498734262,0.02253117266151384,-0.020159631454697763,-0.0010328773945895116
-0.0024335635876009806,-0.007156356748450393,0.024284835659108522,-0.015870722470841026,0.0003087879808301151
-0.001975074728512811,-0.008591799999264916,0.02568186844986459,-0.010774064803814532,0.0008194007140710351
-0.0015136600266040842,-0.01004324151287179,0.026700489108606833,-0.00521176415889298,0.0006053154273806618
-0.0010518818085883822,-0.011497954267785737,0.027324850070738878,0.00044901331544867744,0.00010008880569004435
-0.000592258119035324,-0.012942641266030428,0.027545287726975117,0.0058409864096056665,-0.00027168685192424695
-0.00013724790447066003,-0.0143635604145065,0.027358464542997226,0.01062258255821382,-0.00029384644829760445
0.00031076368176259303,-0.015746656269071457,0.02676740611521601,0.014503895984140194,4.588965159480117e-05
