Delta,Theta,Alpha,Beta,Gamma
-1.1473416299821178e-08,-1.941689756306428e-08,-1.9416897563064273e-08,-6.42608240408256e-06,-0.00011604779157044651
-1.0073234625031241e-07,-1.697926442660282e-07,-1.690217233669613e-07,-5.2017931622177786e-05,-0.0007526697029409863
-4.450489272149472e-07,-7.461816148041791e-07,-7.379470742696979e-07,-0.0002066778985315012,-0.002147924550863471
-1.3503049519253656e-06,-2.248521132247188e-06,-2.2036920440033133e-06,-0.0005480668527684519,-0.0033761869160498664
-3.2236043093980197e-06,-5.3226403944185896e-06,-5.154508286752757e-06,-0.001108120524353121,-0.0024804316825579914
-6.532252447966175e-06,-1.0676481155945442e-05,-1.0182894029868807e-05,-0.0018357530057330962,0.0016897366047937772
-1.176536003882147e-05,-1.9000995635059377e-05,-1.7783827657917634e-05,-0.002591833476153879,0.007778532258935116
-1.9400734541994823e-05,-3.090158320346734e-05,-2.826745250989264e-05,-0.0031733620924150265,0.01222848686532504
-2.9878619378041027e-05,-4.6843745352565114e-05,-4.169308731054741e-05,-0.003357934792872236,0.01153014858677551
-4.3582090145078804e-05,-6.711334030082778e-05,-5.782726147640866e-05,-0.002956005571266463,0.004732795500656095
-6.0822919750371914e-05,-9.178985115552862e-05,-7.612557234615495e-05,-0.0018582488474356551,-0.0056353310117636
-8.183212792210086e-05,-0.00012073155559610335,-9.57377506332234e-05,-6.821424326348474e-05,-0.014883293948972505
-0.00010675558159560005,-0.00015357324340626056,-0.00011553624944746935,0.0022851217557193835,-0.018797756998524165
-0.0001356556093988785,-0.00018973791214976462,-0.0001341686350749843,0.0049561469676642515,-0.015889796074623642
-0.00016851890675774386,-0.00022846244683058728,-0.00015013181308024868,0.0076109474895659545,-0.007927696665666811
-0.00020526951681511298,-0.00026883452842282315,-0.0001618626239961412,0.009871190500789715,0.001368751494051429
-0.00024578454671490374,-0.00030983597132727957,-0.0001678367706332513,0.011367595942026564,0.008471077568029702
-0.00028991025525194734,-0.000350387632066143,-0.00016666775521585666,0.011795273535607845,0.011671205685213615
-0.0003374768994891792,-0.0003893923742166383,-0.00015719892220703897,0.010962376766151525,0.011380925306848373
-0.00038831131470340875,-0.00042577367743952733,-0.00013858311683273623,0.008824410665719706,0.009229474932801417
-0.000442246102712283,-0.0004585074419500084,-0.00011034492044478381,0.005499079095681496,0.006774479852718664
-0.0004991239584315322,-0.0004866441280354432,-7.24206582115762e-05,0.0012598113205066098,0.004684451074055464
-0.0005587959651870804,-0.0005093191064573821,-2.5172908369521982e-05,-0.003491029413632951,0.0027495763766828543
-0.0006211139396719492,-0.000525751461762337,3.062049949731221e-05,-0.008266150897198694,0.00046961906194093643
-0.0006859183509663342,-0.0005352341361921559,9.379950005301771e-05,-0.0125496741778466,-0.0023283655705208964
-0.000753023810292069,-0.0005371192036624795,0.00016287171588342687,-0.015859052840770403,-0.005256967778391087
-0.0008222032442141907,-0.0005308005831174492,0.00023607516460934832,-0.017804185221561564,-0.007572971486834542
-0.0008931705396409049,-0.0005156942566026994,0.0003114515262135324,-0.018135085420950086,-0.008585620258957717
-0.0009655611368787301,-0.0004912155635023854,0.00038692797050866835,-0.016771446051415742,-0.007987184323723208
-0.0010389113308858428,-0.000456755367339389,0.00046040310652161566,-0.013811173612529407,-0.005962102714792654
-0.0011126389433952697,-0.00041166009539345686,0.0005298293488172397,-0.009518848230870914,-0.0030896670709425183
-0.00118602879651307,-0.00035522179161257965,0.0005932830673662878,-0.004297394587663563,-0.00012580205347775402
-0.0012582251492768476,-0.0002866818858905942,0.0006490168418293678,0.0013532757732561314,0.002254095702641666
-0.0013282308542723544,-0.00020524799862240114,0.0006954932255033238,0.006887086807172587,0.0036764358918342406
-0.0013949114610514576,-0.00011012028246518176,0.0007314029242599477,0.011767889161746604,0.004168020238273234
-0.0014570031497386925,-5.248010156967353e-07,0.0007556698329546256,0.015524896302463063,0.004063537587058871
-0.0015131255626537183,0.00012424494194324172,0.0007674421738801474,0.017800086095126975,0.0037477590321763126
-0.001561802165292781,0.00026477472712553725,0.0007660669330204807,0.018380827683683328,0.003385933682502372
-0.0016014899568459727,0.0004214626495649872,0.0007510469725434173,0.017214251981410453,0.002840953555822191
-0.0016306174163990478,0.0005944417557311596,0.0007219860037936293,0.014404280535401541,0.0018605167637389937
-0.0016476266283292024,0.0007835007107149657,0.0006785320742754826,0.010195332459535227,0.00040277745798058894
-0.0016510147484573763,0.0009880121454138397,0.0006203313849634136,0.004947110925392723,-0.001170695732560573
-0.0016393717087972285,0.001206875105299714,0.0005470005157960897,-0.0008967799486523343,-0.0022302456103649826
-0.0016114135998682533,0.00143847337317683,0.0004581196905842592,-0.006845202074536547,-0.002280830610844487
-0.0015660122920503818,0.0016806492417289322,0.0003532466496468429,-0.012399470886406897,-0.0013362185509313501
-0.0015022207846800456,0.0019306938818108431,0.0002319514495148915,-0.01709388233893117,3.875907090660692e-05
-0.001419291780687348,0.002185358535137963,9.38747810554285e-05,-0.02053220156246464,0.0010762019571167853
-0.0013166861796837354,0.00244089171036217,-6.118755225308782e-05,-0.022415912818989647,0.0012950772600647665
-0.001194069607578549,0.00269310462859303,-0.00023317528328603175,-0.022562336237717633,0.0007694527407203013
-0.0010512978994943242,0.0029374619149453883,-0.00042163693611623154,-0.020913399721512002,-1.3859064913081668e-05
-0.0008883947478026338,0.003169190277468594,-0.0006255980714827664,-0.01753715838246719,-0.0005747171195513505
-0.0007055253089061603,0.0033833967610943493,-0.000843438240533124,-0.012623595824841108,-0.0007963781645368321
-0.0005029688111094947,0.003575189435912344,-0.0010727887625235286,-0.006474858906032263,-0.0009518165969428561
-0.00028109249025827455,0.0037397946932541198,-0.001310461363209665,0.0005106613957392315,-0.0014101346065175805
-4.032942753732455e-05,0.0038726650823644824,-0.0015524168393449174,0.007860509194374431,-0.0022817987726230305
0.00021883629826172652,0.003969570485352767,-0.0017937826236838813,0.015055666843530591,-0.0032843116956217974
0.0004958735202689147,0.004026665493265175,-0.0020289263256920943,0.0215619027313778,-0.003910851830298658
0.0007901945810928066,0.0040405285037118524,-0.0022515876867749305,0.026863800866489845,-0.003745478873370428
0.0011011326375728386,0.0040081726803385485,-0.00245506471738364,0.030500847642358477,-0.0026829230583261454
0.0014279081150123712,0.003927033496733452,-0.0026324433237495397,0.032104784244285846,-0.0009235185487387356
0.0017695883192605226,0.00379494054862393,-0.002776855300749522,0.03143628180288955,0.0011962561367936694
0.002125044886444525,0.0036100825697740783,-0.00288174740274504,0.028417471324271616,0.0033728228518536316
0.0024929140192754603,0.0033709749704917465,-0.0029411435252920167,0.02315585657482394,0.005385106255373319
0.0028715645570614717,0.0030764391350228183,-0.002949882441926213,0.015955078660251004,0.007032662347485134
0.003259078493581777,0.0027256015671685975,-0.002903815609604937,0.007308700968475573,0.008059693080116972
0.003653247143741023,0.002317918042424967,-0.002799953914687328,-0.0021256304180063265,0.00815432612379917
0.0040515839786528455,0.0018532236530893048,-0.0026365582636637907,-0.011572498411467801,0.007040546088707223
0.004451353157595523,0.001331805742177852,-0.002413174678149388,-0.02020360203510405,0.004615714592030466
0.00484961187842736,0.0007544947901494503,-0.002130618245086645,-0.027215789109914904,0.0010668465369551468
0.005243264744344742,0.00012276817492659728,-0.0017909119495489187,-0.03191354031368621,-0.0030901537081048274
0.005629128278131447,-0.0005611385651977292,-0.0013971879749107004,-0.03378566041923987,-0.0070859269099196
0.006004002417079119,-0.0012941206110279823,-0.000953562293390108,-0.03256681402172257,-0.010095956525023722
0.006364743453716988,-0.002072104442855648,-0.00046499783808422765,-0.028277162332184566,-0.011512043840603165
0.0067083309984957975,-0.0028899745123706,6.282562934214393e-05,-0.02123611841720611,-0.011167306689895575
0.00703192185343257,-0.0037415391984639197,0.0006236187030218432,-0.012047998997219169,-0.00937515764852371
0.007332886557490583,-0.004619543496032932,0.0012105572870155488,-0.0015584141405416377,-0.00672671543309103
0.007608828347870434,-0.005515728229271424,0.0018163251987742843,0.009217996249721434,-0.0037512744608523057
0.00785758725401143,-0.0064209297726944845,0.0024331315311026296,0.019194332267288623,-0.0006643274775486544
0.008077232916724717,-0.007325212216258593,0.0030527129949012638,0.02732375501392646,0.002609306410924466
0.0082660491975378,-0.0082180244218774,0.0036663315621779323,0.03271425708643741,0.006145435089492182
0.008422513307243706,-0.00908837473255584,0.004264777581204303,0.03473123678005496,0.009686271966433489
0.008545272895951727,-0.009925014752876698,0.004838389624247837,0.033074795904078524,0.01254011775845613
0.008633125612938618,-0.010716621848440976,0.005377103393409886,0.027822249763539284,0.013828165476054158
0.008685005584609414,-0.01145197035188895,0.005870540478152057,0.01943036172257082,0.012928488341617184
0.00869997940220775,-0.012120085006331624,0.006308142603344553,0.008695655827673891,0.009816835175903402
0.008677251520445333,-0.012710375174200294,0.006679350182875946,-0.0033246844795093242,0.00508721243456741
0.00861617724579225,-0.01321275162466579,0.00697381892980511,-0.015423798011103596,-0.0003224785450813477
0.008516281685694417,-0.01361772765205355,0.007181666789034783,-0.026375198402171944,-0.005478365559069837
0.008377284267728175,-0.01391650440171127,0.007293744062187456,-0.035065431634166686,-0.00965510634294093
0.008199128784457223,-0.0141010399327882,0.007301918901946934,-0.04061263805101073,-0.012355461414784658
0.007982017197385519,-0.014164104706789114,0.007199366402402045,-0.042457694489037225,-0.013272513690763647
0.007726442434750643,-0.014099331400269774,0.006980843906549865,-0.04041985806791281,-0.012328854259961412
0.007433213351990462,-0.013901270332594327,0.006642931971969995,-0.034713570629494185,-0.009781572774686395
0.007103465661634327,-0.013565460347122308,0.006184222824966212,-0.02592609314084614,-0.006245031379499716
0.0067386558256320546,-0.013088519058777375,0.005605445618372704,-0.014957588271561266,-0.0025076748868229906
0.006340538747691341,-0.012468249366627458,0.004909526710320966,-0.0029277559312087162,0.0008023723773042226
0.005911132617020119,-0.011703754541328276,0.004101589648132815,0.008943028141938451,0.0034805416733615954
0.005452674901772031,-0.010795552985230867,0.0031889023915199093,0.019465781168515373,0.005727973055378604
0.004967573289811779,-0.00974568416695636,0.002180780221281236,0.02761295188904511,0.007846023962831988
0.004458355602333808,-0.008557797056003893,0.001088453944340601,0.032630998356367964,0.009865380399639505
0.0039276235373029485,-0.007237211341654644,-7.508531110358443e-05,0.03412249940416406,0.01139014211070328
0.003378015495961187,-0.005790941604811977,-0.0012952530492453898,0.03208860126488826,0.011773081286570647
0.002812182616338616,-0.004227677253932503,-0.0025560412229294915,0.026926707987844373,0.010489497274588951
0.0022327795591087617,-0.0025577162142035362,-0.0038401875946227986,0.019382618310375032,0.00744658118745322
0.0016424688493380075,-0.0007928557601187145,-0.005129347144155647,0.01046126193617321,0.0030443917348562735
0.0010439359997237087,0.001053752840970149,-0.006404271519567027,0.0013057463645844807,-0.0019957540199506065
0.0004399123866736122,0.0029677783450325844,-0.007645003272216399,-0.0069405808031622095,-0.006875549421634351
-0.00016679712604869752,0.004933904433015292,-0.008831091391454578,-0.013271620309755202,-0.010889952515420052
-0.0007732855972020148,0.006936036263058535,-0.009941835306853433,-0.016938604833272773,-0.013496777117087867
-0.0013765196949515961,0.00895750699599585,-0.01095656580269245,-0.017538946161983333,-0.014351369291859904
-0.001973325724470481,0.010981271500136752,-0.011854970835928874,-0.015064257652554293,-0.013356491128662907
-0.002560390943467031,0.01299007683783908,-0.012617469898567752,-0.009902159588976046,-0.01069765169454391
-0.0031342821463981665,0.014966604795491507,-0.013225632741616804,-0.002790661823039129,-0.006798139124262818
-0.0036914802699690823,0.016893587793382164,-0.013662630132135868,0.005271116185409691,-0.0021871885594706
-0.0042284280762382555,0.018753902848923944,-0.013913699310757591,0.013146159851703863,0.00263286433940714
-0.004741588249173978,0.020530648100654372,-0.013966605899971217,0.0197012240860754,0.007218232324803973
-0.005227510214965865,0.022207204963636457,-0.013812084970156404,0.023948066286485704,0.011108282788662754
-0.005682903843082372,0.023767289415343347,-0.013444243615808031,0.025165868949476245,0.013760866185629085
-0.006104716235816075,0.025194999299920185,-0.01286090464448408,0.022990570764949664,0.014636195736884187
-0.006490205245378147,0.026474868787444636,-0.012063868048173623,0.017462538009986303,0.013440127480389953
-0.0068370022535153094,0.027591942615516066,-0.011059067551587708,0.009029155525299537,0.010364782965032224
-0.007143158354555259,0.028531879385181282,-0.009856605787470555,-0.0014973609453712033,0.00610954512077248
-0.007407171753115548,0.029281086218116186,-0.008470662068355424,-0.013023562056875566,0.001603195487028727
-0.007627997885411503,0.029826880143610787,-0.0069192772867071916,-0.024292684852707504,-0.002417643054606539
-0.007805045635648501,0.03015766795127981,-0.00522402752537341,-0.03402508376975667,-0.00568306804800456
-0.007938162662264282,0.03026313657860887,-0.0034096006093251273,-0.04106482515129623,-0.008317835831114494
-0.008027611416579756,0.03013444839053903,-0.0015032900367490066,-0.04451375762453383,-0.010483533252555952
-0.008074036518890383,0.02976443718213108,0.0004655786981440531,-0.043835634178262216,-0.012022603778064373
-0.008078424574613921,0.02914779999024036,0.0024662720144229067,-0.03891759762897232,-0.0124007070291665
-0.008042058900714728,0.028281277503134056,0.004467301584122761,-0.030083043798353283,-0.01102132498763832
-0.007966472959977064,0.027163813819403557,0.006437083732799689,-0.018056642634575557,-0.007701388606292788
-0.007853406717668553,0.025796686001461736,0.008344581372539408,-0.003887785673670918,-0.002965093823456785
-0.007704769442148086,0.024183595609348862,0.010159907493795162,0.011157509191408541,0.0020695016483892595
-0.007522611009114417,0.022330717544854523,0.011854873759426026,0.025724008520795785,0.006161590656312948
-0.007309102039986612,0.02024670515535802,0.013403473119097379,0.038500825321741795,0.008493808339299115
-0.007066521616713201,0.01794265387779764,0.01478229063289396,0.0483480802778308,0.008974738148658835
-0.006797250161401613,0.01543202819597993,0.015970841125428754,0.05440465774933303,0.008146884487062998
-0.006503764564903386,0.012730557946361716,0.016951835349616185,0.05616694805628307,0.006793240373474332
-0.0061886328704623015,0.009856109910229529,0.017711377809752554,0.05353115026345955,0.0054959218376846326
-0.005854506602946446,0.006828539479531408,0.018239099562080294,0.04679514396628617,0.004392808006920703
-0.005504109806861856,0.003669525655164521,0.018528228883544412,0.036620020490959436,0.003232732112236383
-0.005140224640041925,0.00040239140623390593,0.018575602402929183,0.02395576419285526,0.0016510957251859937
-0.00476567380591167,-0.002948089224725778,0.01838161945397326,0.009939686828135218,-0.0005200963128694882
-0.004383300291310754,-0.0063558961007581455,0.01795014289998635,-0.004220680078371793,-0.003084674254599896
-0.003995944994845908,-0.009793978987403812,0.017288350183030668,-0.017366993645351273,-0.005532496461546638
-0.0036064229777596174,-0.01323448365329142,0.01640653871075485,-0.02849879161060051,-0.007257273812878702
-0.0032174992263965235,-0.016648987324676137,0.015317889953378324,-0.03686028436376985,-0.007812543098056368
-0.0028318649568055457,-0.020008742874026698,0.014038196837658872,-0.04199715355083351,-0.007077498976542586
-0.002452115645157259,-0.02328493126206751,0.012585559157551168,-0.04377915493605346,-0.0052716737687192716
-0.0020807321257785153,-0.026448921887232565,0.010980051795497506,-0.04238846500213663,-0.002841881302748115
-0.0017200661048691244,-0.029472540358352395,0.009243370840267578,-0.038277482332449216,-0.00029661841949718055
-0.0013723310438116523,-0.032328342381954936,0.007398463607981313,-0.03210266388476717,0.0019373061934815161
-0.0010395984872223006,-0.03498989082894166,0.005469150208578235,-0.024642722808257054,0.0035961261355992643
-0.0007237988371893308,-0.037432031150208725,0.003479746057329317,-0.016710295273551234,0.004594571605565602
-0.0004267248533574297,-0.03963115911197474,0.001454695579580589,-0.009066306648093976,0.004988741294859459
-0.0001500361657688873,-0.04156547496797649,-0.0005817733828514284,-0.0023458348777213355,0.004904234947295294
0.00010473633625212012,-0.04321521938169025,-0.0026059669581633255,0.0029969583330682796,0.004455070633924162
0.00033618684359247315,-0.04456288758035456,-0.004595009032147545,0.0067195880331275505,0.00369070292203397
0.0005430323487149456,-0.0455934184341739,-0.006527087264931768,0.008795794380083521,0.002605529988640301
0.000724112982855892,-0.04629435450661716,-0.008381657553443455,0.009395610176713292,0.0012118136688702122
0.0008783966901187476,-0.04665596870066886,-0.01013960379868156,0.008845622927450917,-0.0003731273704075773
0.001004989724844695,-0.04667135400107359,-0.011783351793911094,0.007575726117267128,-0.001899645251311967
0.0011031534771132146,-0.04633647499122915,-0.013296939268081738,0.006059054329707862,-0.0030599242370960966
0.0011723270212690862,-0.045650182199573494,-0.014666047383471801,0.004751581573688312,-0.0036290614681349915
0.0012121542021091877,-0.04461419174600845,-0.015878001031340752,0.004037488465854704,-0.0035786968072084166
0.0012225140459025475,-0.04323303316804245,-0.016921745989356637,0.004185753415343994,-0.003080767684777241
0.0012035531459771045,-0.041513968843249156,-0.01778781152673118,0.005322031533225772,-0.002400119783334673
0.0011557177666167318,-0.03946689019531407,-0.018468268470873316,0.007417618256274707,-0.0017588209370988758
0.00107978187649568,-0.03710419858499054,-0.01895669475096946,0.010294775287791207,-0.0012681165353209253
0.0009768661943322385,-0.034440680637646166,-0.019248161135468903,0.01364597353060467,-0.0009538130422175866
0.0008484437127584933,-0.03149338685327301,-0.019339247372397717,0.01706428592561623,-0.0008131218710592681
0.0006963292216468335,-0.02828151847641325,-0.019228093123894816,0.020082792908981618,-0.0008206932458923382
0.0005226530176930759,-0.02482632269113116,-0.018914481109428446,0.02222123454841489,-0.0008709460835660031
0.00032982078714821947,-0.021150992856153884,-0.01839994461095277,0.023037316363210616,-0.000735322348333905
0.00012046191273597709,-0.017280569877719497,-0.017687889311606718,0.022178257905463378,-0.0001294485934146512
-0.00010263214415671551,-0.013241841760033287,-0.016783719233553315,0.019426625594909704,0.0011052988183106191
-0.000336577839598872,-0.009063238529725917,-0.015694955956448306,0.014734494618811133,0.002824851507955907
-0.000578475208920102,-0.004774717797139075,-0.01443133804303258,0.008241758559747542,0.004566716018971189
-0.0008254845855351057,-0.000407633178516887,-0.013004884738892247,0.00027694396694324545,0.0057504654746296175
-0.0010748985228360287,0.004005423930432689,-0.011429907067562304,-0.008659146566380239,0.005980470845981345
-0.0013242034469379326,0.008430817505393642,-0.009722952105996214,-0.01792577879076096,0.005243025794286239
