Delta,Theta,Alpha,Beta,Gamma
3.254871957628007e-09,5.508343263299748e-09,5.5083432632997455e-09,1.8230032684145768e-06,3.292138040290521e-05
3.029456920654293e-08,5.107559137189643e-08,5.085689026750424e-08,1.571909393732074e-05,0.00023090014372735448
1.4308631669789302e-07,2.4006507676081943e-07,2.3761359975595692e-07,6.740002326575479e-05,0.0007397218378673662
4.6671159931434214e-07,7.782856766570185e-07,7.642177385954134e-07,0.00019528168341108456,0.0014108622917632903
1.200589506638229e-06,1.9874813325458946e-06,1.931705669980818e-06,0.0004362934390259328,0.001660767717548905
2.6207223975685548e-06,4.301260605400684e-06,4.127936863032074e-06,0.0008078124478727892,0.0008315112319848791
5.075128199240965e-06,8.247493792611302e-06,7.794999773236799e-06,0.0012928635341841288,-0.0012021554635738257
8.973747638709712e-06,1.4419898147653245e-05,1.3383790563931805e-05,0.0018331027163372004,-0.0037232110330035137
1.4774123146201169e-05,2.3441689943080394e-05,2.1300370370175087e-05,0.0023317647293822495,-0.005463020985197973
2.2963258388822874e-05,3.592276717596687e-05,3.184756580180015e-05,0.0026658629948173823,-0.00533189954754486
3.403547978008563e-05,5.2410977171955393e-05,4.5164514653991004e-05,0.0027048941524451674,-0.0030994387301465213
4.8466709656795364e-05,7.333911118079848e-05,6.116800168520706e-05,0.00233274349093607,0.0004343792681025297
6.668694327678011e-05,9.89716547511469e-05,7.950173681808727e-05,0.0014698219295914952,0.0038830250302677454
8.905358737261083e-05,0.0001293567244282768,9.950082763943041e-05,9.26234863546127e-05,0.0060247108900473075
0.00011582770874796472,0.00016428740779685907,0.00012017691914520641,-0.0017525064456857308,0.006373062579786677
0.00014715353689390636,0.0002032736037475883,0.00014022559790955824,-0.003944829359854311,0.005244880550360952
0.00018304019457923706,0.000245522942371319,0.00015805434663651377,-0.006296302908370964,0.003373112294500085
0.00022334476231157787,0.00028992946125744686,0.00017182872501439155,-0.008570160899944508,0.0014060914948624006
0.0002677572203170722,0.0003350710492231003,0.0001795361800437146,-0.010507848429978215,-0.0003545632771116355
0.0003157891551112743,0.0003792187885569924,0.0001790684244092988,-0.011859347737896828,-0.0018704115395070267
0.000366768051039971,0.00042036096903283774,0.0001683223338708644,-0.012412113234490256,-0.003113261727783326
0.00041983750398195914,0.00045624174724899263,0.00014531587491483625,-0.012015417934376767,-0.003914459934273641
0.00047396212304337396,0.0004844115228890237,0.00010831215303929629,-0.010598423325849895,-0.004044669281515231
0.0005279356876044576,0.0005022856265040853,5.5943925197134836e-05,-0.00818070997330776,-0.0034207647561416083
0.0005803925636972173,0.0005072102725206621,-1.2666721440252387e-05,-0.004873657805229867,-0.002225350926738749
0.0006298242626102334,0.000496537815579189,-9.779556965259229e-05,-0.0008711950467546689,-0.0008190490285089814
0.0006746037356739482,0.00046771436257180574,-0.0001990111764589294,0.0035700150439359965,0.0004760073843307374
0.0007130189036820797,0.00041838067064153893,-0.00031508023074020117,0.008158253575440413,0.0015277477734365243
0.0007433148618690774,0.00034648352299804057,-0.00044388958025917387,0.012597341764848276,0.0023555472692944153
0.0007637427279330533,0.00025039213194687785,-0.0005823933007794487,0.01661471211163877,0.0029579760405638233
0.0007726131122474265,0.00012901412683854698,-0.0007265923852877511,0.019982990924881833,0.0031881730685879434
0.0007683532131325905,-1.8092501974168286e-05,-0.0008715517618709181,0.02253347342602559,0.0028121392471439754
0.0007495672092137499,-0.00019061389111236845,-0.001011456891972666,0.02416162475557799,0.001712326400984426
0.0007150988946063724,-0.00038738471917591007,-0.0011397120209862986,0.024825238121718576,5.687365691824286e-05
0.0006640935641878512,-0.000606309129654194,-0.0012490838760903162,0.02453567271062072,-0.0017274177208917447
0.0005960542709676502,-0.000844307575026589,-0.0013318959194966438,0.02334280854936829,-0.003176589868044745
0.0005108870936404349,-0.0010972992439347163,-0.0013802767761598052,0.02131563570778851,-0.004036422961368705
0.0004089313897558779,-0.0013602267247406884,-0.001386461540033506,0.018522286686172715,-0.004340090439691792
0.00029097340447732233,-0.0016271246946795042,-0.0013431379076030273,0.015014580368158795,-0.004261603779617557
0.00015824371488340095,-0.0018912300938063004,-0.0012438231335642847,0.010821668748177915,-0.0038781261485589984
1.2399833286598866e-05,-0.002145129177171234,-0.0010832545972982398,0.005955010837370187,-0.0030534791378244164
-0.00014450516040866233,-0.002380937085623395,-0.0008577764643501203,0.00042357411165275726,-0.0015584027940611757
-0.00031006800050341837,-0.0025905066712579947,-0.0005657060540961059,-0.005744670934411741,0.0006536130973113067
-0.0004815949479591311,-0.002765663358165,-0.00020766412723613204,-0.012480122635422097,0.0032365112324896222
-0.0006561751231919555,-0.002898460708425623,0.00021314774740421557,-0.019652345863825884,0.0055006190772275065
-0.0008307646037877538,-0.0029814474768034634,0.0006907418739947515,-0.027057142569756918,0.006731551933931621
-0.0010022761062721069,-0.0030079329615274567,0.0012162320213676418,-0.034411068674221314,0.006587508063526865
-0.0011676677391518296,-0.0029722354525347603,0.0017778338335378298,-0.04135382267191583,0.005308107927009419
-0.0013240246984233973,-0.0028698997676992284,0.0023609931221977324,-0.04745920179957201,0.0035789269017467815
-0.0014686296838385847,-0.002697873849459972,0.002948648942550934,-0.05225587098147998,0.0021215090242303358
-0.0015990202227474948,-0.0024546393196605426,0.0035216290188967297,-0.05525895276101557,0.0012664895910832414
-0.0017130327992854327,-0.0021402946246239433,0.004059167043464748,-0.05601180705097582,0.0007876910133074605
-0.0018088341388263712,-0.0017565909492657603,0.004539525888740523,-0.054134687132515236,0.0001085955314190682
-0.0018849396433255866,-0.0013069212157297125,0.004940707239216342,-0.04937442714686141,-0.001253483709063444
-0.0019402188738559824,-0.0007962630307596728,0.0052412248324341555,-0.04164819140346217,-0.003301156749643671
-0.0019738888847009805,-0.0002310786682672138,0.0054209142283646655,-0.031075048367609184,-0.005487927702003002
-0.001985497878725518,0.00038082141784308586,0.005461747420899012,-0.017991092429283626,-0.007012452162706064
-0.001974902974288431,0.0010304424038359798,0.0053486177617900685,-0.0029458744479095096,-0.0072768200650106035
-0.0019422458186200517,0.0017077869647561075,0.005070061453037988,0.013320697995419042,-0.006203785927983553
-0.001887928316807758,0.002402048367500724,0.0046188862489164205,0.02992081262094506,-0.004216750329733054
-0.0018125889261665655,0.0031018110537223867,0.00399268394056582,0.04587888624214583,-0.0019296551961821044
-0.0017170790682475906,0.0037952565163346724,0.003194208225282858,0.06020524625619425,0.00020842052672373186
-0.0016024396269342866,0.0044703715833892075,0.0022316028528905686,0.07197634878936693,0.00206258538527622
-0.0014698784019815906,0.0051151547567675724,0.0011184678557828837,0.08041258446738027,0.0036859980679246
-0.0013207494961851433,0.005717816211313641,-0.00012624365938145374,0.08494482561556145,0.005070204107853766
-0.0011565344271526339,0.006266969273080202,-0.0014784985541957299,0.08526293511247725,0.0060074922989266704
-0.0009788230944088618,0.006751814192496677,-0.0029096190463206166,0.08134227124165803,0.006185609222313987
-0.0007892920830727049,0.00716231623060812,-0.0043868671396015985,0.07344644825728723,0.005425370703375952
-0.0005896789537725806,0.007489378126694878,-0.005874162572687854,0.062105900752423254,0.003848136023022629
-0.0003817534745136585,0.007725003154774485,-0.007332918917939629,0.04807298461078511,0.0018260940207909678
-0.00016728851141614525,0.007862442156809212,-0.008722981979323887,0.03225651867899738,-0.00023839361219983872
5.196677241227936e-05,0.00789631837117771,-0.010003651279034947,0.015641953536472172,-0.0021101996395408826
0.0002743104467328421,0.007822727139136853,-0.011134759699579052,-0.0007934915311167613,-0.0037299821404692974
0.0004981088895999181,0.007639310982881007,-0.012077781142124018,-0.016160113997784522,-0.005046997979653656
0.0007218165612034163,0.007345311439622267,-0.012796934217900405,-0.029720337699138583,-0.005856950443016017
0.0009439942485935549,0.00694159697315875,-0.013260251991958382,-0.04093312666955259,-0.005829017721885594
0.0011633236081081894,0.006430663305583483,-0.013440591518568561,-0.049476550457666864,-0.004737163590856436
0.0013786148592510818,0.005816601292698899,-0.01331655952420381,-0.05524948752606408,-0.0027155879587899994
0.0015888051515958272,0.005105029134166309,-0.012873330893254485,-0.058354587838247075,-0.00030984769833028664
0.0017929468558700737,0.004302989206653308,-0.01210333566588164,-0.05906506991440051,0.0017579419343620932
0.001990186714760732,0.003418813168904628,-0.011006790105302094,-0.05777863957040253,0.0029681207704789743
0.0021797378144924186,0.0024619611157364837,-0.0095920491753593,-0.05496297746476179,0.003268268260550487
0.0023608469181642475,0.0014428417984563677,-0.007875761118377022,-0.051098297677781214,0.0030468351623961863
0.002532760304705918,0.00037262207002411744,-0.005882808869919177,-0.04662284337229728,0.002846926009816211
0.0026946918469616292,-0.0007369653232763694,-0.0036460277681690345,-0.041886829548861554,0.0030207328570806755
0.0028457970259843117,-0.0018738067454018748,-0.0012056953394145062,-0.03711965988677875,0.003537158191678481
0.0029851554507654985,-0.003025578862204336,0.0013912025520545915,-0.03241440548450947,0.004027150693111269
0.003111762644002955,-0.004179902882187718,0.004091915244765225,-0.027732131672641023,0.004000209314080217
0.0032245305096175307,-0.005324481371271091,0.006839058086488799,-0.02292614632260938,0.0030962266013675995
0.0033222958766006712,-0.006447217535549256,0.009571902524318401,-0.01778277416262673,0.0012624124257471507
0.003403837462056566,-0.007536315573021877,0.01222779437366674,-0.012072023067352661,-0.0011950400369634604
0.003467902118750177,-0.0085803601552369,0.014743666112797664,-0.005600007768862223,-0.0036942422438769064
0.003513240168150802,-0.009568375277458695,0.01705760417450596,0.0017441704763869633,-0.00557993528147562
0.003538647275645516,-0.010489867009086308,0.019110426256712464,0.009952138054509693,-0.006384925172943927
0.003543008414125061,-0.01133485807182113,0.020847219864826256,0.018873637654591578,-0.006032483448584021
0.0035253396436690744,-0.012093921819620934,0.022218794611560524,0.02820996730969549,-0.004850053694206031
0.003484825715401059,-0.01275821915136934,0.0231830071145332,0.037525757064045276,-0.0033551026952876235
0.003420854048479425,-0.013319537403739269,0.023705925159259695,0.04628024200283818,-0.0019340411611364651
0.003333046280694976,-0.013770329078296043,0.023762803126725452,0.05387604998646035,-0.0006405260443359306
0.003221286848166251,-0.014103751179748691,0.02333884253526609,0.05971929823170861,0.000724360666126979
0.003085745606918365,-0.014313709983855892,0.022429712906236812,0.06328182697146412,0.0023034226714090437
0.00292689082135318,-0.014394916969128414,0.02104181329629953,0.06415655612689776,0.0039022490610665455
0.0027454908899822114,-0.014342957815251606,0.019192265242519088,0.062099979125914334,0.004996812062915624
0.0025426064958290807,-0.014154370416067756,0.016908640591202888,0.05705947748366305,0.00506570906865006
0.0023195768108456457,-0.01382672440062344,0.014228437695600529,0.04918513193412121,0.004000622292863748
0.002078002509098313,-0.01335869616331453,0.011198324018752011,0.038825581638910055,0.0022540520016901856
0.0018197257480343555,-0.012750137907665816,0.007873164158372772,0.026506930996324944,0.0005774217606653771
0.0015468055830553163,-0.012002142135443523,0.004314854353700341,0.012894810005994664,-0.00046352209590822804
0.0012614881621891099,-0.011117101501199196,0.0005909905084261767,-0.0012571786005230196,-0.0008189299347159516
0.000966173589896315,-0.010098759652095085,-0.0032265951417160157,-0.015166112215366349,-0.0008786940460463518
0.0006633828383573663,-0.008952246302903422,-0.007063388344907411,-0.028078002222020955,-0.0010778106529786002
0.00035572658738467427,-0.007684092641260295,-0.010843798800285364,-0.03932016542483686,-0.0015319749991326288
4.587423030461296e-05,-0.006302229658370828,-0.014492784114369042,-0.04834541908027165,-0.0020046999295615865
-0.0002634814200073291,-0.004815976750127004,-0.01793746272612264,-0.05476738384592247,-0.0021958449568255777
-0.000569667316646698,-0.0032360264129167727,-0.021108685677576358,-0.05838498566704363,-0.002049549094263354
-0.0008700806772628908,-0.001574423676971135,-0.023942530923232796,-0.05919195000223905,-0.001775242575520343
-0.0011622418894391955,0.00015546838175076367,-0.026381678410370316,-0.057366786367675955,-0.0015637995150126207
-0.001443843784786956,0.0019390273183887176,-0.028376625477278056,-0.05324218196931108,-0.0012930314946234718
-0.0017127939632302748,0.0037604593216171065,-0.029886711229561394,-0.04725844173187091,-0.0005528703918340538
-0.00196725081007401,0.005602914433322066,-0.030880930523884766,-0.0399100616285544,0.0009695702076667908
-0.002205655492079998,0.007448623709252587,-0.03133852640967986,-0.031694903671603776,0.0030643950661685205
-0.0024267601768506145,0.009279056258897363,-0.03124935180241701,-0.023072020519568966,0.004943139877154098
-0.002629648975654275,0.011075100175555833,-0.03061399032580641,-0.014429945634901627,0.005677751322475255
-0.002813746168783763,0.012817274203612996,-0.02944362888390064,-0.006065285680947383,0.004830886611904611
-0.002978808029041319,0.014485973382336386,-0.02775968379811641,0.0018277152176516054,0.0027797286723058915
-0.0031248986853468913,0.016061744273184547,-0.025593195569111202,0.009154511092669227,0.0004603480818558258
-0.0032523537159096687,0.017525579425710584,-0.02298401836191514,0.015902991685568763,-0.0012754074789440334
-0.0033617353019654616,0.018859220314926817,-0.019979834975239974,0.02211349475442868,-0.0021867529221675135
-0.003453780484907962,0.020045461859664493,-0.016635027484644238,0.02784204767675409,-0.0026572231611991432
-0.003529342113932022,0.021068454986439434,-0.013009432872899502,0.033124708554535004,-0.0032272783143567378
-0.0035893226632134284,0.02191400273217603,-0.009167015687218867,0.03794942956587906,-0.00406454736540924
-0.003634603945692523,0.02256984066402085,-0.005174495453947531,0.04223845475725895,-0.004810625221582494
-0.0036659785091269826,0.023025888054653252,-0.001099970932471117,0.04584146924571896,-0.00490095488413647
-0.003684089051721077,0.02327445594552893,0.0029884174980500853,0.04853897988083833,-0.004056947002060566
-0.0036893805157049366,0.023310401938086745,0.007023751881077577,0.05005599366008474,-0.0025319721844493355
-0.0036820674101102025,0.023131226089939776,0.010941499219063948,0.050086126130954235,-0.0009295784693540434
-0.003662118020508841,0.022737104785400086,0.014680550563640704,0.0483248516331034,0.00022660090226366312
-0.0036292573146242345,0.022130860174880338,0.018184119281331738,0.0445085271498689,0.0008177555089241939
-0.003582989891789529,0.021317864560417964,0.021400486937390144,0.03845471937345103,0.0011281015022755476
-0.0035226420254381836,0.02030588397450016,0.024283594176706048,0.030099901764156455,0.001579095485254346
-0.0034474184440441043,0.019104871780902137,0.026793484368061164,0.019531727654499544,0.0024398545149225807
-0.0033564672116865994,0.01772672751052985,0.028896615369479666,0.00701319764924494,0.0037011880198644124
-0.0032489465474759885,0.01618503551343357,0.030566056528531487,-0.007005271356140021,0.005117983995292366
-0.0031240900690743647,0.014494793466883567,0.03178158506973172,-0.021891106753994097,0.006307774419210763
-0.0029812693666971604,0.012672136532188683,0.032529692735290286,-0.03685645918596394,0.006831789296709729
-0.00282005300760961,0.01073406246647451,0.032803513592435184,-0.051007204245433,0.006290076542483616
-0.002640259287791226,0.008698165794366152,0.03260268687150834,-0.06340957929684676,0.004483910507407739
-0.0024419985194796623,0.006582391344467261,0.03193317059488016,-0.07316644320940918,0.0015976975197384339
-0.0022257014093940933,0.004404815575086886,0.030807019079059084,-0.07949456763325796,-0.0017526854963085725
-0.0019921329897281074,0.0021834585129687327,0.02924213064088881,-0.0817958859397291,-0.0047208260918639895
-0.0017423943840322786,-6.38762568768732e-05,0.027261965240286214,-0.07971709658780415,-0.006609076645832483
-0.0014779152544671461,-0.002319737519134319,0.024895229383578497,-0.07319218379879368,-0.007181615383541215
-0.0012004380736617582,-0.0045671396941983555,0.02217552746807354,-0.062462118562038635,-0.0066854094232193986
-0.0009119935495978826,-0.006789652123815838,0.019140981030549932,-0.04806723347056559,-0.0055756747686579785
-0.0006148668159148829,-0.008971463927734943,0.015833816182874175,-0.03081150931433291,-0.004181312811042503
-0.0003115564416151308,-0.011097428488002633,0.012299914900988152,-0.011702979300806896,-0.0025825180504793687
-4.730679691522393e-06,-0.01315309583712044,0.008588321885624547,0.008121978493360472,-0.0007675377691159203
0.00030281475511554913,-0.015124740995746492,0.0047506997527836025,0.027482191693073307,0.001124973344486655
0.000608195962343312,-0.016999391284377243,0.0008407316334938259,0.04523661378975974,0.002744195356388702
0.0009084791383266588,-0.018764849799352574,-0.00308652236477995,0.060365808602431084,0.0037277976046295597
0.001200720993742833,-0.020409710273566264,-0.006975304921961631,0.07204499461600491,0.003980641304161385
0.0014820127721176172,-0.021923361500215614,-0.010769869221292314,0.07970217040885708,0.0037557293088139785
0.0017495267795675068,-0.023295983954952814,-0.014415209578631445,0.08305440390367698,0.0034379053372615943
0.002000563492027471,-0.024518542692085084,-0.017857810124613457,0.08211769805550906,0.0032116668607262565
0.002232598888405001,-0.025582777828190004,-0.02104640260860767,0.07719032311465251,0.0029124495126663544
0.0024433337870648575,-0.02648119026393257,-0.02393271954083299,0.06881362482031517,0.002198983949228195
0.0026307470029784605,-0.027207020276318494,-0.02647222799248089,0.057715964120553694,0.0008908937309313744
0.0027931513200910776,-0.02775422148876939,-0.0286248337187845,0.04474479558614651,-0.0008342536114171123
0.0029292475420545543,-0.028117439016753856,-0.030355551210163853,0.030791112552837605,-0.002555534898481761
0.003038170177767233,-0.028292003187956823,-0.03163513748550709,0.01671150220560621,-0.003914703642321292
0.003119519842748068,-0.02827394711941879,-0.03244068382546297,0.003255557867348976,-0.004821727122743491
0.0031733806190004806,-0.028060050450875194,-0.03275615322247576,-0.008991965458702499,-0.005376799738959134
0.003200322601169566,-0.027647907603699503,-0.03257284729515971,-0.019646290173721322,-0.005607870859224915
0.0032013893330397804,-0.02703601935116458,-0.03188978724749999,-0.028531493715400202,-0.005305330345412506
0.0031780681597813054,-0.0262239088747544,-0.03071399675882192,-0.03566459645233618,-0.0041426011654464735
0.0031322412854462344,-0.02521226336704452,-0.029060675883851528,-0.04121945251083475,-0.001992240539871596
0.0030661177183606662,-0.02400309765730667,-0.02695325213884535,-0.04547573306811953,0.0008501442674863197
0.0029821498483662803,-0.02259992991038348,-0.024423290727075858,-0.048758210449457974,0.0037483882815821713
0.002882940448878385,-0.021007955866083013,-0.02151024519836229,-0.05137252802507093,0.006055640114547029
0.0027711452304639136,-0.01923420939806128,-0.018261034852524616,-0.053545607943900494,0.007419746872996207
0.0026493742301214483,-0.01728770066537037,-0.014729443007965536,-0.05537976413169912,0.00783673203388928
