Delta,Theta,Alpha,Beta,Gamma
1.901132995130916e-09,3.217359473027568e-09,3.2173594730275667e-09,1.06479508531578e-06,1.9228996821991876e-05
1.8159160574369017e-08,3.061867376024441e-08,3.049093297933377e-08,9.441473954647383e-06,0.0001395638125874552
8.789260331063788e-08,1.4749842433764276e-07,1.460353374858719e-07,4.160761803707816e-05,0.0004649572454636651
2.9307181898251247e-07,4.889342157850656e-07,4.803678414839583e-07,0.00012371130419762898,0.0009302857086022554
7.691012294245311e-07,1.274040778344028e-06,1.2394525381318072e-06,0.0002833830741163953,0.001182807231745092
1.7115075548003275e-06,2.8118441742287686e-06,2.7025588054739883e-06,0.0005388890816156382,0.0007890567939278288
3.3819985275323185e-06,5.504330324717793e-06,5.2144974876414645e-06,0.0008908282930167924,-0.00036178992052539
6.113649761838144e-06,9.846242404375632e-06,9.172115356990446e-06,0.0013177301993623496,-0.0018555955955393008
1.0311387935731634e-05,1.6415186613255825e-05,1.4999112287483168e-05,0.0017741016858518767,-0.0029816810593342163
1.6443556547256433e-05,2.5845237351077087e-05,2.310331101691738e-05,0.0021898495603384508,-0.0032142646490814658
2.5024057995579476e-05,3.878391703272125e-05,3.381785633615277e-05,0.0024728024379916122,-0.0025302241107668477
3.6589473751952806e-05,5.584103311383996e-05,4.7337026212657754e-05,0.0025179411522979096,-0.0013061844838251795
5.167751700265272e-05,7.7541161054805e-05,6.366081914235068e-05,0.0022251831348644798,6.42002177037094e-05
7.081052952380494e-05,0.00010428681958953118,8.255736910523748e-05,0.0015227499372670887,0.0014427214794865372
9.448292243215317e-05,0.00013633092219028436,0.00010354307694437296,0.00038891285982578305,0.0028558710541856007
0.00012314877689803615,0.0001737523999493413,0.00012587499603954996,-0.0011352389606588073,0.004172174037241913
0.00015720748178700976,0.00021643175101715808,0.00014855244994637338,-0.0029452281604691525,0.004930240036803945
0.00019698939148005137,0.0002640302873531198,0.00017033158788916635,-0.004882920393895252,0.004565205859330508
0.00024274584991426567,0.0003159807314087441,0.00018976003623237756,-0.0067523896487657175,0.002881677508689154
0.0002946460713215271,0.0003714933541359393,0.00020523463379451125,-0.008339239065007449,0.0003430578083142795
0.0003527789445678068,0.0004295740200268539,0.00021507659230021793,-0.009433285748979666,-0.002128057308838665
0.0004171551045562511,0.0004890457553714072,0.00021761308011283907,-0.009854687652343697,-0.003714883665198427
0.00048770640608593877,0.0005485685834051037,0.00021125718780234227,-0.009480516719497062,-0.004176723194829916
0.0005642847948073453,0.0006066607339582494,0.0001945867248637281,-0.008265296452128744,-0.003842343207446664
0.0006466659520491217,0.0006617300013544715,0.0001664280387778796,-0.006249004454033181,-0.003174669699638001
0.000734561514499847,0.000712121040615576,0.00012594786376855517,-0.003550629555821191,-0.002339808453206876
0.0008276380414419533,0.0007561744895265255,7.274596277517393e-05,-0.0003515762840284907,-0.001189070780734958
0.000925535870844895,0.0007922851498431495,6.932599093239817e-06,0.003123663820036841,0.0003531238220553153
0.0010278808714776974,0.0008189464720821184,-7.082458001067439e-05,0.006624374697765843,0.0019180867272277956
0.0011342869864314896,0.0008347773315686278,-0.0001592898144500734,0.009888180906084098,0.0027733878517230562
0.0012443532547698497,0.0008385372789781137,-0.0002566787452061494,0.012657253151666917,0.0023686886157690272
0.0013576610495546074,0.0008291400251886091,-0.0003606976713474363,0.014699132077793515,0.0008887933922693858
0.0014737744890307306,0.0008056700719901581,-0.0004685963222389353,0.01583059038671952,-0.0007173056279171264
0.0015922425450806523,0.0007673997433340842,-0.0005772352409285026,0.01593897424663504,-0.001342341796809049
0.0017125995790720414,0.0007138008569253422,-0.000683171497070145,0.014995432623555951,-0.0005183677638762633
0.001834363272073748,0.0006445492390596229,-0.0007827619256213462,0.013058011553779433,0.001230361515778003
0.0019570325696580764,0.0005595266129014297,-0.0008722762138306492,0.010266335340847942,0.0027658781103192605
0.002080089419167653,0.0004588263045327995,-0.000948009978347796,0.006830428366344162,0.003139600359927899
0.0022030053697683068,0.00034276443191103717,-0.0010063928421190802,0.003014267935441425,0.0021882365870140746
0.0023252499961590985,0.00021189113841490562,-0.0010440938647253448,-0.0008871221440103936,0.0005014272753835016
0.00244629646262765,6.699372044793192e-05,-0.0010581294912667227,-0.0045771052475374425,-0.0011206522108774886
0.0025656218890123166,-9.091226608474442e-05,-0.0010459748029070476,-0.00778977190770466,-0.0022144223256351267
0.00268270425160216,-0.00026060067591024335,-0.0010056714825910635,-0.010318470439036736,-0.0027805770746431122
0.0027970195225476644,-0.0004406545519068705,-0.0009359225067396401,-0.012034281312910197,-0.002998349112592279
0.002908040932455581,-0.0006294845100301473,-0.0008361671274241236,-0.012892131397584139,-0.0028936767881196095
0.0030152386775400895,-0.0008253483648402073,-0.0007066364432521058,-0.012926569306251877,-0.002303506830677593
0.0031180768161339772,-0.0010263772474306788,-0.000548393026754815,-0.012240749519908176,-0.0011332765879193
0.003216006236500902,-0.0012306096579709014,-0.0003633546518855097,-0.010990583173723072,0.0004005716931094626
0.0033084564124953703,-0.0014360282467281778,-0.00015429588491515533,-0.009363994773225779,0.0018223707740893705
0.003394830361102384,-0.0016405912904232957,7.518091780356337e-05,-0.007555679422291861,0.0027094596473733515
0.003474504876676599,-0.001842255028773336,0.000320708528312755,-0.005740808838665497,0.0029611351729573374
0.003546833727257418,-0.0020389906923216606,0.0005772462780909463,-0.0040538760490053125,0.002766629982701594
0.0036111491489473524,-0.0022288040646642458,0.0008391897387764907,-0.002578137773365216,0.0023249689512619023
0.003666758992543327,-0.0024097618272132283,0.0011004915271490374,-0.0013466714962699171,0.0016254791015526185
0.0037129415533100523,-0.002580020818742,0.0013547940142250197,-0.0003510720026137674,0.0005339686890839261
0.0037489432186584353,-0.0027378510925119017,0.0015955796793850172,0.0004479269028221637,-0.0008968354343478474
0.003773982753419534,-0.0028816461376524128,0.0018163418031199527,0.0011111021759973247,-0.0022352699158227286
0.0037872614766707178,-0.0030099216967951026,0.0020107694133715014,0.0017117751999177356,-0.0028601256431011112
0.003787974840436241,-0.003121311123432463,0.002172933373996649,0.0023245726508077267,-0.0024292697119874095
0.0037753212037175974,-0.0032145646616583514,0.002297461017858005,0.0030113267496616673,-0.001220558541472125
0.003748507371463711,-0.003288553429781628,0.0023796937161292228,0.003807304522106537,-1.5397357893500346e-06
0.0037067541450293367,-0.0033422725511604045,0.0024158286514281784,0.004712768119418401,0.000516701456162472
0.0036493055272679054,-0.003374837298266358,0.00240304705838559,0.005692940984810578,0.00020772246404966564
0.0035754424571612536,-0.00338547101922174,0.0023396265638676063,0.006685433044069386,-0.00040072390227353287
0.0034844990244178127,-0.0033734887257742736,0.002225030470188278,0.0076113923186207876,-0.0005747863211842212
0.0033758787878030746,-0.0033382807784026088,0.002059966834216196,0.008386927459003397,3.3694065419239476e-05
0.003249070888429428,-0.003279297518043506,0.001846414595196898,0.008933488924583888,0.0011291448338727932
0.00310366735282092,-0.0031960327683455843,0.0015876178206828046,0.009187212365399832,0.002022318229002546
0.0029393820343644648,-0.003088005780088102,0.0012880483195903739,0.009106438192180913,0.002139587312255218
0.0027560687578053137,-0.0029547460993714103,0.000953332772144424,0.008675160820295975,0.0013729452536391184
0.0025537345147986883,-0.002795788613268989,0.0005901387235613257,0.007900536441488498,5.2868041988465435e-05
0.002332545302490026,-0.0026106827636361955,0.0002060182581584333,0.006805486620954721,-0.0013291200695764087
0.002092826305329178,-0.002399012637688412,-0.00019078327376654292,0.005420665677810868,-0.002362285283417137
0.001835060881645833,-0.0021604198250685697,-0.0005915402725630092,0.0037804675657838334,-0.0027755552739138355
0.0015598914614805995,-0.001894623310234378,-0.0009872702856523925,0.0019244589616261964,-0.002409233322152725
0.0012681210565496032,-0.001601438277715256,-0.0013689638691358114,-9.876241471027671e-05,-0.0012663196467796545
0.0009607107755351258,-0.0012808012961031355,-0.0017278224989653978,-0.0022299112796098385,0.00035682060659715336
0.0006387698696099773,-0.0009328071885806079,-0.0020555037188953887,-0.004401588501740068,0.0018551314364300714
0.0003035395950881529,-0.0005577545311347612,-0.002344364057080299,-0.006542779767409432,0.0025762453261478344
-4.3623827062786915e-05,-0.0001561898482190946,-0.0025876833794791156,-0.008581116827835284,0.002247580115786623
-0.0004012625030227273,0.0002710581795629472,-0.0027798561642957474,-0.010441254061783088,0.0012182315334638917
-0.0007678264842097693,0.00072285486179693,-0.002916544555725277,-0.012042215514290792,0.0002429144809296237
-0.001141684007301633,0.0011977390367692053,-0.002994796548547893,-0.013298554212592312,-8.183183147178575e-05
-0.0015211360417085732,0.0016939001427647199,-0.003013132504578695,-0.014127396201967974,0.00022709747549278734
-0.0019044337147875658,0.0022091557836971558,-0.0029715951474317383,-0.014458331135052538,0.0006017185999133167
-0.002289792588917969,0.002740940494566419,-0.0028717513582408845,-0.014240635445590406,0.0004661709027739428
-0.0026753987758746565,0.0032863143410285724,-0.002716637520867759,-0.013445202370631931,-0.00022747675274406898
-0.0030594085332004612,0.0038419882334280804,-0.002510653576703079,-0.012064327675813526,-0.0009760209204457504
-0.003439949662661022,0.004404351308715196,-0.002259423915167689,-0.010115431896347341,-0.0012476941896798547
-0.0038151332530850166,0.004969485591654316,-0.00196964409896556,-0.007651268178433497,-0.0010450259644447656
-0.00418307686270207,0.005533166260318892,-0.0016489193315974945,-0.004771491801840938,-0.0009233564013497096
-0.004541930824297375,0.00609086209054392,-0.0013055841846379148,-0.0016254056356717716,-0.0013820772911807154
-0.00488989598593373,0.006637756136571252,-0.0009484879744321514,0.0016014383561064654,-0.002188163633026091
-0.005225227156830725,0.007168795936603221,-0.0005867419886641964,0.0047144832046124305,-0.0023513270690551534
-0.005546227238257595,0.007678763724083337,-0.00022944481986955683,0.007539780621551014,-0.0009302158796325779
-0.005851243762711552,0.008162345519429312,0.00011458566791465925,0.00994308775160151,0.0019511658443879542
-0.0061386768997302,0.00861418287673768,0.00043705049935486244,0.011833122472024515,0.004819914541703333
-0.006406998365011876,0.00902890794956274,0.0007303727224481657,0.01315416540252685,0.005725360177470819
-0.00665477219230968,0.009401177194187168,0.0009878762988985213,0.01387848019414866,0.003705339861511174
-0.006880667707402518,0.009725719851825052,0.0012039530960188114,0.014005559214841583,-0.00031163941172158565
-0.007083462038210641,0.009997404967860937,0.001374218112923841,0.013566781649620809,-0.003977387564467741
-0.0072620376052203,0.010211316567138338,0.0014956390443306297,0.012628140591597243,-0.005109663203535126
-0.007415382539356776,0.010362822379213817,0.0015666226750414413,0.011284841595038843,-0.0032189877573629037
-0.00754259768407927,0.010447629117546157,0.0015870494670262815,0.009647956618091485,0.00018603139512448795
-0.007642907525016171,0.010461828349636038,0.0015582602814249182,0.007828932288827707,0.002733062661947216
-0.0077156698899316966,0.010401941311451744,0.0014830048413003074,0.005928088513035271,0.0028712136043449288
-0.0077603821036210194,0.01026496606181326,0.0013653575299597581,0.004029022372106613,0.0008431093967182163
-0.007776685784449104,0.010048422618995368,0.0012105990985281753,0.0021966503683996212,-0.0016957878958060403
-0.007764373792390161,0.009750389554248387,0.0010250615039547638,0.00047621014079482943,-0.002984708593697916
-0.007723399813594555,0.009369530862101565,0.0008159394041198952,-0.0011066576691316696,-0.002334781661803788
-0.007653887113774219,0.008905118773562806,0.0005910795453926189,-0.002542427481396537,-0.0003702452600651674
-0.007556132433921079,0.00835705905947195,0.0003587606308624093,-0.0038297744465673436,0.001648358511031919
-0.007430604575161754,0.0077259191210916674,0.00012747005280342626,-0.004965901555884724,0.0027383538254112686
-0.007277941283704334,0.007012952180858525,-9.432323109892735e-05,-0.005939999434348253,0.0026592474414723647
-0.007098948251265635,0.006220110673399742,-0.0002984006106650216,-0.006732784745155474,0.0017636115843125486
-0.006894599813323865,0.005350049365111194,-0.00047702390650841724,-0.007320416394802258,0.0005785682165205587
-0.006666036268063655,0.004406126746871332,-0.000623149047379568,-0.007678100688116234,-0.00047003562234677367
-0.006414552491075155,0.003392413502417042,-0.0007306090623497344,-0.0077803780198097364,-0.0010928334717335967
-0.006141577586464638,0.0023137079528729627,-0.0007942620434204953,-0.0075999807553697825,-0.0011258922328001395
-0.005848651521583463,0.0011755476951833758,-0.0008101115316358282,-0.007110494215263391,-0.0006337869567540006
-0.0055374064883547324,-1.5796187424092907e-05,-0.0007754103604306999,-0.006296204532331347,-1.9680803189974336e-05
-0.005209556304299447,-0.0012533479675985518,-0.0006887512423025516,-0.005166544940616686,0.0001090977136750391
-0.004866890168100148,-0.00252947247765265,-0.0005501351589423598,-0.0037674758840139716,-0.0006237808026044906
-0.004511263367704009,-0.003835923550458569,-0.0003610026086069817,-0.0021824774532823634,-0.0019337979542020031
-0.004144579920625515,-0.00516388681003875,-0.0001242180035321674,-0.0005215681376394541,-0.0028892741610553763
-0.0037687680615718674,-0.006504018268079433,0.00015599078140757713,0.0010966181372625077,-0.002501899303544626
-0.003385753687007339,-0.007846487376837907,0.00047412724472302496,0.0025621059436485225,-0.0005124410917262674
-0.0029974362185221973,-0.009181031902982218,0.0008235454450575267,0.003785257220748235,0.002259865940498191
-0.002605667536450863,-0.010497025228042049,0.0011965897781970065,0.004702536357448322,0.004347408131089135
-0.002212232063903999,-0.011783552115954738,0.0015847557652779358,0.0052784535970579775,0.004571145476416298
-0.0018188273656380967,-0.013029491093453298,0.0019788697102222385,0.005504738933621161,0.0027939211088500583
-0.0014270480869469162,-0.014223607373188453,0.002369278867061126,0.0053957951005555865,-5.366524910711656e-05
-0.001038377576137731,-0.015354662572532582,0.0027460412672806155,0.004979770434754605,-0.0026353623169825986
-0.0006541888342525658,-0.016411542504641354,0.003099109520834227,0.0042876397206294365,-0.004006400987963762
-0.0002757515212708218,-0.017383395646351982,0.003418511904397087,0.003345538580262815,-0.003973321311337118
9.576092187136427e-05,-0.01825977028774692,0.003694538761790855,0.002174866484845113,-0.0028873186301385623
0.00045926779880048314,-0.019030742262155995,0.0039179380663995535,0.0008000663832072678,-0.0012146944985911012
0.0008137799193926083,-0.019687034197912553,0.0040801144582362555,-0.000741060287149672,0.0006862004053865137
0.0011583956614513828,-0.020220133304914813,0.004173319673730293,-0.0023910011177030667,0.002474584624741868
0.0014922906370281705,-0.020622412473348752,0.004190824621108407,-0.004073272772672152,0.003684696053485313
0.0018147019944571828,-0.020887251265133185,0.0041270719720249245,-0.005698314901000299,0.0038326327466703058
0.0021249122231267003,-0.021009146878875534,0.003977815039827089,-0.007170110534674248,0.0027646377291519297
0.0024222369565510644,-0.02098380607320813,0.0037402479263216716,-0.008390852967622424,0.0009153168216169146
0.002706017447896051,-0.02080821592006296,0.0034131249115567975,-0.009264679542819943,-0.0008447332664624506
0.0029756150194947804,-0.020480697303540685,0.002996860951790436,-0.009703312752405878,-0.0017354793744608114
0.003230405054929754,-0.020000944783705878,0.0024936056845247345,-0.009634701274695238,-0.0015681320783435975
0.0034697715025456036,-0.01937005077696719,0.0019072895253999882,-0.009012355899323891,-0.0008076233477633092
0.0036931058719908904,-0.018590507120491626,0.0012436458820334485,-0.007821496620017375,-0.00015062048081610765
0.003899814324656923,-0.01766617815414276,0.0005102128323872927,-0.006079956060067868,1.546856934994433e-05
0.004089333030455227,-0.016602245767687318,-0.0002836884356264802,-0.003835286586310198,-0.00017499538408541964
0.004261148613771144,-0.015405132929392619,-0.0011270068039004768,-0.0011614776059544645,-0.0003171271742751506
0.004414819907944452,-0.014082413413701375,-0.0020070548561187448,0.0018424273443932932,-0.0001773390565391413
0.004549999030215533,-0.012642712433514976,-0.0029096476569600137,0.005052247094430586,8.198692247570166e-05
0.004666451282004667,-0.011095600347355168,-0.003819287498007333,0.00831913491542527,6.673644412135974e-05
0.004764072625669189,-0.009451482889882906,-0.004719395298560072,0.01147195238863382,-0.0004827669118732206
0.004842901506959159,-0.00772149465700609,-0.005592591145785668,0.014321446602966583,-0.0014570455870014586
0.004903121511639274,-0.005917402813152457,-0.006421025047921108,0.016666164386726915,-0.002439884951748255
0.00494505429904392,-0.004051522628661269,-0.007186751853328057,0.018301804362050773,-0.0029551435292919457
0.004969146498064314,-0.0021366389861196306,-0.007872135215578457,0.019036883881452343,-0.0026745979196557143
0.004975955886960299,-0.00018592518101393218,-0.008460261569254095,0.018715658132053684,-0.001490153611604223
0.0049661392521606566,0.0017871445328454928,-0.008935349739594466,0.017244478750342514,0.0004695987060774014
0.004940439202529902,0.003768883377674388,-0.0092831505994135,0.014613776737486326,0.0027902502011366097
0.004899664812838605,0.0057454721987717965,-0.009491335220055361,0.010908392321021318,0.004760266265188077
0.004844664129768261,0.007703027710698932,-0.00954986427489836,0.006304310448167834,0.005570056385792791
0.0047762930016621635,0.009627666380373705,-0.009451320429887347,0.0010559501078546243,0.004751355129279915
0.0046953886106552685,0.011505578056293958,-0.00919117961905852,-0.0045199918556204245,0.0025892043253355995
0.004602753437172166,0.013323118535601274,-0.008768003594454295,-0.010061851913093793,0.00010552009599435804
0.004499147862949949,0.015066916998831184,-0.008183551557400234,-0.01518459834091259,-0.0015301623107070383
0.004385283559745276,0.016723983751103982,-0.007442821308934965,-0.019510250801951384,-0.001808944455538937
0.004261810680118445,0.018281805382958292,-0.006554030338568173,-0.022706731298086587,-0.0012634769033461183
0.004129299208265857,0.019728427298432417,-0.005528535652861647,-0.024527095859727,-0.001028536244935709
0.003988222402681259,0.021052536566968056,-0.004380679413272093,-0.024837312645274646,-0.001854343325400498
0.0038389514316698177,0.022243559762333807,-0.0031275475704983266,-0.02362467484974569,-0.0033693673581790227
0.0036817639138406345,0.023291779060219193,-0.0017886424508500077,-0.020988047844642553,-0.004266653227750134
0.0035168605179580576,0.02418845492715051,-0.00038548758429450905,-0.017118573628786875,-0.003349532140052772
0.0033443802292923873,0.02492593773394483,0.0010588091829909492,-0.012279821755768496,-0.0006160434126895686
0.003164409028575255,0.02549775805780703,0.002520014833132908,-0.006790355505312253,0.0025437234041670743
0.002976984536739668,0.02589869913601091,0.003973246577583541,-0.0010051804793013105,0.004275560050149226
0.002782103729020325,0.026124862822045233,0.005393465209388806,0.004708643709822817,0.0036213513727420907
