Delta,Theta,Alpha,Beta,Gamma
3.912953717906484e-09,6.622039985665464e-09,6.622039985665461e-09,2.191584649030838e-06,3.957754391667047e-05
3.601269301455462e-08,6.071355618631264e-08,6.045063730327145e-08,1.866931544561465e-05,0.000273468360754932
1.67763819922339e-07,2.814302701447197e-07,2.785104878550697e-07,7.880169403531065e-05,0.0008557137469184574
5.386713701179189e-07,8.980193729912258e-07,8.814448436273595e-07,0.00022398869329869796,0.0015687716692874309
1.3630278713333194e-06,2.2551734036722204e-06,2.190242223155226e-06,0.0004896862757459178,0.0017034909167889666
2.9280768684458865e-06,4.8016353260538005e-06,4.602376370251286e-06,0.0008861238221135623,0.0005677198089381248
5.588935659203685e-06,9.071582900500498e-06,8.55785101315005e-06,0.0013863454461598569,-0.0017870276761157797
9.761129750314753e-06,1.5660687603244297e-05,1.4498355304253227e-05,0.0019239772726025379,-0.004342009385807704
1.5908907609521973e-05,2.5194256424218613e-05,2.2818470729503578e-05,0.002399376939050631,-0.005665649893820327
2.4526899774196863e-05,3.828402010387146e-05,3.3807297422807754e-05,0.0026915596642654383,-0.004848525948727614
3.611505766866004e-05,5.547440217320251e-05,4.7583484040780224e-05,0.0026743782468985336,-0.0021052530289834043
5.11501832491727e-05,7.718498993942421e-05,6.403276811813404e-05,0.002236580433857952,0.0013910168877624613
7.005876110904154e-05,0.00010365825311283629,8.27593468900651e-05,0.0013045170093863813,0.004268302742369616
9.319406785015341e-05,0.00013491836824096033,0.0001030586736203813,-0.0001363125869311278,0.005715394688163678
0.00012081741909773264,0.00017074143722276236,0.0001239128970743463,-0.002026617383677075,0.005730214223009891
0.00015308192344807187,0.00021063465821193297,0.0001440066078004109,-0.004230348606141455,0.004809381938081039
0.00019001860125404644,0.0002538244161586733,0.0001617622564215178,-0.006544477134213022,0.0034537901847856074
0.0002315275588138593,0.0002992579091762757,0.00017539858853011698,-0.008718683076005374,0.0019098783355446687
0.0002773779649510054,0.0003456244105087997,0.00018301612654263066,-0.010480709544012732,0.00025892642657355483
0.00032721823827350726,0.00039139786811866266,0.00018270837409236994,-0.01156456152414749,-0.0013685599115637818
0.0003805936617614582,0.0004348950528192407,0.0001726890200779945,-0.011740756823188467,-0.0027351345961542403
0.00043696602490219614,0.00047433887222174355,0.00015142029192068596,-0.010847767871503405,-0.0036478555285324086
0.000495731076199928,0.0005079185705905067,0.00011772973726583905,-0.008821131116146316,-0.004117059844091251
0.0005562335030848495,0.0005338454092188237,7.091007414179212e-05,-0.005713763635164654,-0.004306342255393648
0.0006177824105882583,0.0005504080523299343,1.0803024443634044e-05,-0.0017009235377302724,-0.0042917147864548295
0.00067967009027897,0.0005560315235319791,-6.213175822156666e-05,0.0029329816421097585,-0.0038821591337725903
0.0007411936263626812,0.0005493379788595928,-0.00014676670414059771,0.007823005270191887,-0.0027344051634696047
0.0008016756727887158,0.0005292020965249289,-0.00024128417220109892,0.012561197508772218,-0.0007185046799172826
0.0008604805177989434,0.0004947937257723002,-0.0003431902447546716,0.01673655684631214,0.0017828986478978866
0.0009170244751212141,0.00044560572761718337,-0.00044936608667245327,0.019973481386891614,0.003953175599961188
0.0009707829647918086,0.0003814708544587534,-0.000556151311943478,0.021967011740992644,0.005001970966186281
0.001021297328948687,0.0003025727848182553,-0.0006594515080789921,0.02251295557901558,0.004667194444800546
0.0010681819448993156,0.00020945222146201374,-0.0007548655579243977,0.021529135853753528,0.0033558313531842185
0.0011111290132803152,0.00010300361622726525,-0.000837833173765029,0.019063210719891234,0.0018103316502985091
0.0011499076784054051,-1.5542920821413976e-05,-0.0009038034433960577,0.015284737378066793,0.0005819149039790207
0.0011843568276673942,-0.00014465508681771886,-0.0009484196129579102,0.010463627158571612,-0.0002567054617144093
0.0012143748598754155,-0.0002825408509277034,-0.0009677078534146719,0.0049408961965914456,-0.0009526131232732107
0.0012399115673208958,-0.0004271903754812581,-0.000958254482001623,-0.000901949577548901,-0.001660900693319633
0.0012609654623891688,-0.0005764111189498005,-0.0009173598243585603,-0.006671419089504065,-0.0021879739396142685
0.001277585896963808,-0.0007278568436600459,-0.0008431647409353437,-0.011988515895561862,-0.002139665347136366
0.0012898763487301668,-0.0008790564075981498,-0.0007347519200380832,-0.016514641336422015,-0.0013393350372424206
0.0012979953778572318,-0.0010274479241042128,-0.0005922245165868306,-0.01997675459930365,-0.0001194779885220366
0.0013021543803081904,-0.0011704192547008997,-0.0004167607163485171,-0.0221888342985108,0.0008126670961493347
0.001302613891913245,-0.0013053512281980398,-0.00021063887323254896,-0.02306535744213209,0.0008651637391404307
0.0012996807841547688,-0.0014296590011683005,2.2772284561324667e-05,-0.022623839475858002,1.977845387105074e-05
0.0012937072548812876,-0.0015408295214569298,0.00027906031282560085,-0.020976434972559688,-0.0011180236718590759
0.0012850907153817382,-0.0016364562111867665,0.0005528502649171794,-0.018313120014190245,-0.0017295534492111763
0.0012742730151481872,-0.001714273131424131,0.0008379160118254937,-0.014879825474648672,-0.001345336887367763
0.0012617379559111234,-0.0017721899908261906,0.0011273172892359426,-0.010954430429374988,-0.0001481917627533357
0.0012480066221198212,-0.0018083283363996639,0.0014135584309673188,-0.0068229068308268605,0.0011767248569533758
0.0012336299037480729,-0.001821059478350887,0.0016887639679885494,-0.002757702119845429,0.001899950977274346
0.0012191771588285086,-0.001809045367759385,0.0019448651790186693,0.0009998068629555527,0.0016799082566008449
0.0012052203816590864,-0.0017712828431267293,0.00217379222955198,0.0042519324687108565,0.0007101554994740209
0.0011923148869087269,-0.0017071487879597425,0.0023676693035680923,0.006853014824403892,-0.00044651763210345335
0.0011809793207322925,-0.0016164406932964853,0.0025190131051863263,0.00871501918063239,-0.001178917611710619
0.0011716781187699418,-0.0014994067458910252,0.0026209353191861398,0.009811252069194263,-0.001114501091944161
0.0011648077755215625,-0.0013567627949775908,0.0026673461352594166,0.010177203691322873,-0.0002668360126190005
0.0011606857457070957,-0.0011896981093106058,0.0026531511826899837,0.009906167152190544,0.0009768427405163948
0.0011595395923646617,-0.0009998740162907474,0.002574432085040586,0.009137941238287204,0.0020132984309667807
0.001161495189067971,-0.0007894175214924155,0.00242860320586822,0.008041480421725046,0.0022903973016365903
0.0011665653439991135,-0.0005609076916338498,0.002214542069404198,0.006795003754692431,0.0015932694871191736
0.0011746419086879926,-0.00031734984585939747,0.00193269431467089,0.005567813887521796,0.00019844054527749121
0.0011854938379285895,-6.213387818457322e-05,0.0015851533155534895,0.004506457398258402,-0.0012343034209187972
0.0011987714081355082,0.0002010228252327817,0.0011757109693696986,0.003725330685676843,-0.0020179200865471842
0.0012140148823946721,0.00046814392067572546,0.0007098732931936203,0.003300403181513782,-0.0018413596934607902
0.001230665782495335,0.0007350698099770346,0.0001948350012330843,0.0032651584581637216,-0.0009498730807449191
0.0012480801851679785,0.0009975383236241024,-0.00036058958171154983,0.00360913637766901,3.2359848508579553e-05
0.0012655443976038142,0.0012512697506100456,-0.000946079168452683,0.004279970004989173,0.0005159338504721532
0.0012822928081844477,0.0014920545828760463,-0.0015499614153996245,0.005188968835143133,0.000301532843455275
0.001297526241293726,0.0017158398461083195,-0.002159413062289821,0.006219083847450603,-0.00036162701089349764
0.0013104285171912538,0.0019188089228251918,-0.0027607049505990106,0.007233917165612297,-0.0010134330713901768
0.00132018016590516,0.0020974520849903733,-0.003339488878195048,0.008087573483897957,-0.0012978608446710328
0.0013259704617906369,0.0022486289110148767,-0.0038811179700257753,0.008636302923870545,-0.0011195208870139878
0.0013270100125986957,0.002369625677290438,-0.004370989260826249,0.008752489425751655,-0.0005833364924785427
0.0013225447994765895,0.002458208563828964,-0.004794898721447933,0.008339470895282046,0.00014895086555000863
0.001311869839788025,0.002512668930983802,-0.005139403105464421,0.0073436464106439924,0.0009224960924690643
0.0012943390699307565,0.0025318544277870224,-0.005392185155635442,0.005760399446541351,0.0015504432283571616
0.0012693693391827665,0.002515182203477095,-0.005542415882577654,0.0036329440408441834,0.0017951971270904437
0.0012364397275497797,0.0024626364609127444,-0.005581101477742193,0.0010464133875845738,0.0014797087290204765
0.00119508994660992,0.002374757101029234,-0.005501398108690531,-0.001879240525797579,0.0006738203379785572
0.0011449210955095982,0.0022526253833085293,-0.005298879414776274,-0.004995648890159165,-0.00023859880331806733
0.0010855989533542264,0.002097847199454915,-0.004971748081508804,-0.008132813520781126,-0.0007501126194770174
0.0010168571299223092,0.0019125297003206804,-0.004520989193774811,-0.011108787673042264,-0.0005857381639824455
0.0009384974685083646,0.0016992472818930502,-0.003950464265603272,-0.01374318910298392,6.062025896291895e-05
0.0008503881425635398,0.0014609983113180274,-0.003266940908170975,-0.01587226150238943,0.0006432341941864682
0.0007524631475783648,0.0012011595963379775,-0.0024800490720603818,-0.017361306986979838,0.000682553878242631
0.0006447272094863862,0.0009234460288694078,-0.001602156307063164,-0.018111673278499812,0.00015218889248152823
0.0005272668130381454,0.0006318769637767946,-0.0006481625822647397,-0.0180631427212322,-0.0005043940987748674
0.00040026355391470267,0.00033074309744210233,0.00036477477094399495,-0.01719545111081544,-0.0007658121790284663
0.00026400387242409565,2.4564047995607296e-05,0.0014175700197003817,-0.015532217850525424,-0.0005099319894474127
0.00011888106509711558,-0.00028196973480952494,0.0024895780542435707,-0.013147018849619448,-0.0001532802115889513
-3.461024534670628e-05,-0.0005840694716154316,0.003558996409108981,-0.010167493755187988,-0.000299976449141311
-0.000195883509768657,-0.0008769275666846368,0.0046032986401269155,-0.006772280623703378,-0.0011702058613317242
-0.0003642693334338862,-0.0011557958594016313,0.005599697486595338,-0.003178023752539403,-0.002290954697222197
-0.0005390220719676624,-0.0014160579301891634,0.006525631764296446,0.000382137821967038,-0.0027420685629492127
-0.0007193241404217473,-0.0016532949647246834,0.007359265935873023,0.0036840588061095463,-0.0018077202848638318
-0.0009042891885954678,-0.0018633464166093587,0.008079989034004007,0.006536827404017231,0.000448328613509649
-0.0010929649331714818,-0.0020423661556393806,0.008668899990893972,0.008801698894203808,0.0031167211242240957
-0.0012843360857423365,-0.002186874244336775,0.00910926713758983,0.010403206053902079,0.004938878314787268
-0.0014773283052194372,-0.002293805364725916,0.009386949236081969,0.011331098406780898,0.00501924519637893
-0.0016708148002145475,-0.0023605561098875563,0.009490765028851362,0.01163298910497155,0.0032902700044565333
-0.0018636268110180315,-0.002385032632639272,0.009412800187414697,0.011399461636921364,0.0004848010534105077
-0.002054567391602572,-0.002365697010624276,0.00914864514781082,0.01074546762831113,-0.0022868889944935773
-0.0022424260173441145,-0.0023016074885889777,0.008697562127446422,0.009792727709357421,-0.004055635457316212
-0.0024259913819480324,-0.0021924476322218913,0.008062581321784822,0.008656539434710306,-0.0043449556853551174
-0.002604061719194391,-0.002038543005083928,0.0072505242129214725,0.0074375898822264365,-0.0032640984554973634
-0.002775454395825349,-0.0018408682633416099,0.006271949196109088,0.0062171407649491365,-0.0013866217570310051
-0.0029390170001696767,-0.0016010484487422694,0.005141015584046558,0.005053965854526906,0.0005075007708639646
-0.0030936399662230166,-0.001321354552597123,0.0038752676681956598,0.003983289906681817,0.0017535831324113399
-0.0032382678014699464,-0.001004688444403137,0.002495347381065045,0.00301947126697687,0.0020842214757936014
-0.0033719052156075354,-0.0006545511775189435,0.0010246468006311282,0.002163254689283192,0.0017250628346221662
-0.0034936172127336775,-0.00027499371854943774,-0.000511092023819894,0.0014113443666071447,0.0012036038598266159
-0.003602526697373632,0.00012944296766862566,-0.002084229222025988,0.000763419676146816,0.0009465932408450413
-0.003697815679577178,0.0005537872222623808,-0.0036657336158721636,0.0002223150239556117,0.0009368583092902062
-0.0037787343183368297,0.0009926874978610344,-0.005225741121269915,-0.00021275987425029672,0.0007213217530324269
-0.0038446168664576317,0.001440455865963171,-0.006734151911215496,-0.0005551358331957908,-0.00017506696842424662
-0.0038948989250250257,0.001891113453384798,-0.008161243961314454,-0.0008349667262991971,-0.001720238248510292
-0.003929129832637472,0.0023384478592857034,-0.009478279240662133,-0.0010948728912234375,-0.003182616963268426
-0.003946977848368896,0.0027760857474669305,-0.010658085857246015,-0.0013785289360882611,-0.0035203043298517008
-0.003948230928270008,0.003197574789403533,-0.011675609106889239,-0.0017181431004609999,-0.0021395269159684032
-0.003932798356223423,0.003596464902979284,-0.01250842927715243,-0.0021268799162116572,0.0005377680570757671
-0.003900716589733533,0.003966382134346828,-0.013137241201312868,-0.0025984090539548934,0.0031836750650369177
-0.0038521581985512822,0.004301096364450249,-0.013546283281246902,-0.0031111040488684904,0.004356579687256056
-0.0037874392741132214,0.0045945900338798425,-0.013723698565446137,-0.003632388875227894,0.003449426620620704
-0.0037070206056548575,0.004841135067275252,-0.013661811901106607,-0.004120391381982602,0.0011105449679063486
-0.0036115008597341247,0.005035379910449099,-0.01335731436520386,-0.004523589593612989,-0.0011851450696690551
-0.003501603462996137,0.005172442487979699,-0.012811354435358064,-0.004781601897918386,-0.002121702465163049
-0.0033781605023874782,0.005248002086512003,-0.01202954024992428,-0.004829999674128638,-0.0013903616332641862
-0.003242096215695647,0.005258384524398404,-0.011021857818624387,-0.004609608423293151,0.0001809579421995043
-0.0030944108458273397,0.0052006381906327705,-0.009802508492721091,-0.004078191273674954,0.001269041528331188
-0.002936164422665412,0.005072600744622281,-0.008389668367860762,-0.0032212941345430386,0.0009811350113135737
-0.0027684600436035786,0.004872956377761736,-0.006805173716790097,-0.0020595750256001263,-0.0005799519660391913
-0.0025924268784395456,0.004601282545127535,-0.005074139008416117,-0.0006512328215784325,-0.0024528973037875814
-0.002409203540858547,0.0042580845169194505,-0.003224515957664712,0.0009107527259453397,-0.003492878923142585
-0.0022199223524899496,0.003844816477686461,-0.0012866028152644401,0.002506204439101426,-0.003087311095954945
-0.0020256947764448825,0.003363888518443682,0.00070748656036984,0.0039992661817004945,-0.00145893611818394
-0.001827598399300005,0.0028186588890650416,0.0027243835657009305,0.005252333470618114,0.0005643569361183091
-0.0016266662810751945,0.0022134103376604546,0.004730044262211193,0.0061403316716389395,0.002082971154374481
-0.001423879787401448,0.0015533091004449255,0.0066903353546830975,0.006563255814560394,0.002595638408470439
-0.0012201657234335271,0.0008443458717439514,0.008571615444202355,0.006455542817569412,0.0021579934773879456
-0.0010163977296269867,9.325980780857342e-05,0.010341302124968714,0.005791854728679809,0.0012204793539329385
-0.0008134009169659134,-0.0006925514939980027,0.011968417666892332,0.004589653889767003,0.0003173085563962057
-0.0006119580857625427,-0.0015051318826998302,0.013424107595351575,0.0029091916577709365,-0.0001917329040695941
-0.00041281579524290015,-0.002336072066102939,0.014682127034982877,0.0008512515307483903,-0.00021790779931040016
-0.0002166889892072723,-0.003176616969371721,0.015719289306018822,-0.0014475161377046806,0.00010795081195634624
-2.4263700558490692e-05,-0.004017772910519441,0.016515870243446563,-0.0038222334170268345,0.0005510930933663546
0.000163801653342665,-0.0048504142086129055,0.01705596050135594,-0.0060910192526255685,0.0008735430769524769
0.0003468750997832802,-0.005665390186798119,0.01732775746878735,-0.008069897674407724,0.0008916109168094603
0.0005243487471410206,-0.006453633574877018,0.017323789308697938,-0.009590357826706362,0.000509662507868337
0.0006956349082623317,-0.007206269587581792,0.01704106649108485,-0.010517087253046654,-0.00024216252729070364
0.0008601620264334996,-0.007914722176492993,0.016481160212587706,-0.010762387664929986,-0.001171841217939452
0.0010173729245387165,-0.008570812006647449,0.01565021026416084,-0.010294063979934345,-0.001937924679266349
0.001166727586826911,-0.009166841452019523,0.014558865271475143,-0.00913544477790672,-0.0021599673882871694
0.0013077106707729568,-0.009695665591514338,0.01322215555259231,-0.00735889793844757,-0.0016171331897412112
0.0014398413174666691,-0.010150752868111405,0.01165929520059537,-0.005076234660456224,-0.00043550709458646286
0.0015626813041943344,-0.0105262417326474,0.009893408589290838,-0.0024294570449881763,0.0008808210978809385
0.0016758382795459491,-0.010816998325389078,0.007951179297646445,0.0004166666276419998,0.0016586386134163924
0.0017789633740216096,-0.011018675761839312,0.0058624256505569045,0.00328138400609187,0.0014333411237074985
0.0018717452646742371,-0.011127770769004362,0.0036596135685937475,0.005976800386602812,0.00027648389777246184
0.001953904084180582,-0.011141671248669908,0.0013773209902702122,0.00832079121125306,-0.001163646989817701
0.002025187804137028,-0.011058689834794145,-0.0009483323471599755,0.010153564081123449,-0.0019882524627708596
0.0020853716942355084,-0.010878082212103096,-0.0032802790134872735,0.01135487232795078,-0.0015768383981755573
0.0021342596316179987,-0.010600052281999821,-0.005581113979204983,0.011857730310513136,5.969866618522197e-06
0.002171685448018716,-0.01022574738530765,-0.007813713542532286,0.011655286414778702,0.0019989807156082662
0.002197513184503437,-0.009757245688074267,-0.009941854505235595,0.010799610105606518,0.003357747636394884
0.0022116363336701582,-0.00919753581963626,-0.01193082278045481,0.009393334027407444,0.003347111774893032
0.0022139770624696234,-0.008550487370900759,-0.013747999123321317,0.007576435869929633,0.0019509195247747995
0.002204486627128282,-0.007820810608880532,-0.015363409680264678,0.005510715621715617,-0.00014280453972656868
0.0021831477890542055,-0.007014004600544354,-0.016750230422295113,0.0033640437339232288,-0.001952506992513551
0.0021499793255387828,-0.00613629430986956,-0.017885236663115346,0.0012957230888921015,-0.002744086090611193
0.0021050420432434658,-0.005194558524557938,-0.01874919108428386,-0.0005562758203270158,-0.0023815408629162937
0.0020484453494538806,-0.004196251147476407,-0.019327165394336352,-0.0020856723928034393,-0.0013097346091689522
0.00198035359872609,-0.0031493181415415197,-0.019608791583559722,-0.0032251799433536303,-0.00022368209795091274
0.0019009920028356206,-0.0020621114490366917,-0.01958843889935672,-0.00394993541757921,0.00034895007053042964
0.0018106523943466895,-0.0009433003526182096,-0.019265313016613324,-0.004276416798322739,0.0003043485515203734
0.0017096989888562375,0.0001982189988323069,-0.018643475423717686,-0.004256996917263126,-6.764236366734892e-05
0.0015985733506389387,0.001353413584283801,-0.01773178398173407,-0.003971410543373028,-0.0003458303475920669
0.0014777966558325248,0.0025131988901311267,-0.01654375874565123,-0.003517135681471058,-0.0002842708272936668
0.001347967139721391,0.003668515348388954,-0.015097378515491682,-0.003000324245605335,3.908844772938273e-05
