Delta,Theta,Alpha,Beta,Gamma
-7.288450925143138e-10,-1.233452193390133e-09,-1.2334521933901327e-09,-4.082148247668094e-07,-7.371898759096028e-06
-6.305878368947032e-09,-1.062844694543412e-08,-1.0579474442448206e-08,-3.2522720492766824e-06,-4.6871324592812744e-05
-2.7624588540679595e-08,-4.6311524792542066e-08,-4.579468459457655e-08,-1.2802485013066747e-05,-0.00013206234202188462
-8.437981951851132e-08,-1.4051754378815995e-07,-1.377251619809017e-07,-3.431306836643379e-05,-0.0002154769802782047
-2.0775801568290065e-07,-3.4331250788724346e-07,-3.32825235684823e-07,-7.284374491101316e-05,-0.00021953594510420055
-4.464959162901842e-07,-7.316257629726129e-07,-7.003853363149999e-07,-0.00013378793757143226,-0.00013236874955476247
-8.736333805345383e-07,-1.418810114307866e-06,-1.3394042924369878e-06,-0.00022264932111762384,-1.318321927963567e-05
-1.5881688635249645e-06,-2.554741202714186e-06,-2.3748501026182934e-06,-0.0003409584298388864,0.00012612725545826345
-2.708793093968019e-06,-4.3118281537650375e-06,-3.938834351322532e-06,-0.00047922781023933866,0.00039083369449788925
-4.36258912295209e-06,-6.8623112053524845e-06,-6.142815416540098e-06,-0.0006119575959892733,0.0008740839813033996
-6.674688144228159e-06,-1.0357539739541397e-05,-9.052594917696965e-06,-0.0006996492536091556,0.0014270049907424579
-9.76242138876951e-06,-1.4915561484663936e-05,-1.2673372927444175e-05,-0.000698141872974791,0.0016133379066707728
-1.3731946622807042e-05,-2.061367861448551e-05,-1.6942040721601446e-05,-0.0005703838341458836,0.001005045050668074
-1.8672255161247993e-05,-2.7477388263381e-05,-2.171836997538314e-05,-0.0002947324797589299,-0.0003832519291739177
-2.464423957337089e-05,-3.5462030256173604e-05,-2.677172316478765e-05,0.00013210056409976864,-0.0019440262453511306
-3.166880265674629e-05,-4.443432645948215e-05,-3.177096636052908e-05,0.000694252905220359,-0.0028415109572059254
-3.9721788845556816e-05,-5.4167314994982434e-05,-3.6291471597530906e-05,0.0013538072825273477,-0.0026464552800243295
-4.8740769990988075e-05,-6.435706238621834e-05,-3.984731752419105e-05,0.00204575381326414,-0.0016871391202225201
-5.864137729370171e-05,-7.465657781607572e-05,-4.194287520308875e-05,0.0026762703739900404,-0.0007597331792565066
-6.933533856247736e-05,-8.471275543372416e-05,-4.21276538757975e-05,0.003130841706106734,-0.00041234532657260576
-8.074362040854733e-05,-9.419445827528728e-05,-4.004049933871115e-05,0.00329353166715861,-0.00044268320243511975
-9.280490299111422e-05,-0.0001028117833184305,-3.5441628394517785e-05,0.003071204265942348,-0.00010024706180538063
-0.00010548564106759045,-0.00011033691502579265,-2.8241845425661802e-05,0.0024130369640109287,0.001147697047405272
-0.00011879745303187027,-0.00011663590871381634,-1.853731840716322e-05,0.001319269557271067,0.0029758405990221843
-0.000132820801148359,-0.00012170891476658333,-6.64621398761112e-06,-0.00015943237926136156,0.004313009671567113
-0.00014772698457195808,-0.00012572448802964287,6.86847825847699e-06,-0.0019258823741590536,0.004176245665783898
-0.0001637896916027845,-0.0001290326570572329,2.1206059795303315e-05,-0.0038392726308996163,0.002523448300303837
-0.000181383464963318,-0.0001321524038151611,3.5369195819189124e-05,-0.005718929998677773,0.0003582481124283165
-0.00020097389355192325,-0.00013574236418384985,4.822854741375764e-05,-0.007354953669143694,-0.0010447524734185408
-0.0002231065411903337,-0.000140567427605384,5.859587143611573e-05,-0.008529589519841611,-0.0011476580714511215
-0.00024839698525388077,-0.00014746591348136612,6.529827256777194e-05,-0.009046303083361695,-0.0005240278962490265
-0.00027751771248523045,-0.00015731068259755874,6.725765623191253e-05,-0.008757968105484714,-0.0002847481160193622
-0.00031117564248182416,-0.0001709544031526761,6.358242479728025e-05,-0.007586262310367528,-0.00107183327110454
-0.0003500788812155905,-0.00018915781211772929,5.3669389852666565e-05,-0.005530432262998624,-0.002506030055564216
-0.0003948985984798181,-0.00021251247877899368,3.730082190006325e-05,-0.0026693844736898234,-0.003551576985623366
-0.00044623489762040964,-0.00024137451769771644,1.471681016070432e-05,0.000838578464486177,-0.0034366513347614727
-0.0005045913503815748,-0.0002758181220705462,-1.3348376695946415e-05,0.004758950386955841,-0.0022896176629904007
-0.0005703552635648861,-0.00031560440749112963,-4.56625173449687e-05,0.008792558616587143,-0.0009424226502911008
-0.0006437766452857768,-0.0003601539235497632,-8.051255375565012e-05,0.012600248898926119,-0.0001295842701041758
-0.0007249419675007526,-0.00040851663163956844,-0.00011573568087327431,0.015839079746263737,0.00014668241188000921
-0.0008137463268736276,-0.0004593460252155053,-0.0001487699970636902,0.018201243210839296,0.0004985582629343782
-0.0009098727202524673,-0.0005108925658609254,-0.00017673819605691947,0.01944511175938793,0.001419703223766758
-0.001012785338166167,-0.0005610279622563344,-0.0001965729906641699,0.019412847764171095,0.0026595331538325764
-0.0011217367111595875,-0.0006072991269036222,-0.00020517877774881742,0.01803663894785745,0.003329548931395819
-0.001235782377419225,-0.0006469997142873955,-0.00019961185021211036,0.01533968049475607,0.002681267673693502
-0.0013537964700097273,-0.0006772465983906088,-0.00017726032574527217,0.011435877931852523,0.0008574056495303696
-0.001474486749618889,-0.0006950574789067098,-0.0001360139041862871,0.0065268252005126525,-0.0010846162047138655
-0.00159641295435866,-0.0006974349257588664,-7.442312201166965e-05,0.0008914245614270258,-0.0019409882620007226
-0.0017180129773195836,-0.000681463069921077,8.150950753751233e-06,-0.00513443442636667,-0.0012851073946794672
-0.0018376370265412148,-0.0006444154550078442,0.00011140304170488444,-0.011185418342075776,0.00022898907903737736
-0.0019535848460057155,-0.0005838637989758053,0.00023398079021722646,-0.016895082855294855,0.0014219776160228808
-0.0020641399638071296,-0.000497775685411651,0.00037342811522745033,-0.02191957963511789,0.0015148192177583722
-0.0021675986614107436,-0.00038459590769636783,0.0005261820314579453,-0.02595582778102853,0.0006536056337770004
-0.002262296496656025,-0.00024331525812075315,0.0006876192386065675,-0.028757032542644938,-0.00035379358685061496
-0.0023466373753010697,-7.35343544544254e-05,0.0008521433952805882,-0.030148295347802487,-0.000793222505976089
-0.0024191278650563404,0.00012447386944358974,0.00101330672276274,-0.030041490123965134,-0.0006134285209782361
-0.0024784150003601874,0.00034970698739842553,0.0011639662006246135,-0.02844501233940367,-0.0003508025123968071
-0.0025233228642043202,0.000600390097392299,0.0012964784903493254,-0.025463561549709624,-0.0005386998775259793
-0.002552883470699347,0.0008739551532102112,0.0014029357401812769,-0.021286057142142302,-0.0011569938988684992
-0.0025663597363746547,0.00116704641375689,0.0014754387492326893,-0.01616377870213433,-0.0016001640268946413
-0.0025632603243416897,0.001475551951677746,0.001506398842047067,-0.010383337438077306,-0.0011742561936210474
-0.0025433468168407592,0.0017946596125303076,0.0014888572682111173,-0.004239406399146416,0.00030050725900058643
-0.0025066337679121448,0.002118935295985552,0.0014168098005606432,0.001988749705677667,0.0022587624669871105
-0.0024533827857715395,0.0024424201090966456,0.001285522659292094,0.008053951306928738,0.0036900538090644647
-0.002384092682682127,0.002758741211125965,0.0010918243818225275,0.013749245379750964,0.0037377278794194927
-0.0022994875521253257,0.00306123136196478,0.0008343591750716439,0.018907830884195086,0.002197633312042036
-0.002200502632523271,0.003343055544270295,0.0005137918312902749,0.02339771574649568,-0.00035958595639377943
-0.0020882651860024363,0.003597347418735265,0.0001329601493424686,0.02711570001620289,-0.0028642563531650644
-0.001964066780016212,0.003817359596636168,-0.0003030264356377697,0.02998436528061108,-0.004249387010499271
-0.0018293256715430986,0.003996627497236571,-0.0007867460160213995,0.03195245872151235,-0.003944597815609319
-0.001685542176924063,0.004129139235976627,-0.0013084908744306605,0.0329956914510316,-0.002156668894278473
-0.0015342528924327228,0.004209498949805289,-0.0018563744204790982,0.03311419221887351,0.0001973823084285662
-0.001376989207952698,0.0042330719923919504,-0.0024165276916499564,0.032325343992890776,0.0019160513536020587
-0.0012152423798801125,0.004196106301516943,-0.002973386016825194,0.030654449123379664,0.0021305274062106494
-0.0010504343822455942,0.004095829885196806,-0.0035100579364692576,0.028127599221142347,0.0007914534517444602
-0.0008838932684070677,0.003930525576579378,-0.004008764680099184,0.024769890858044374,-0.0012856421318651371
-0.0007168336331949813,0.003699581389255332,-0.004451339116198825,0.020609091597515998,-0.0028876183521879756
-0.00055034447813088,0.0034035122981075955,-0.0048197737207930315,0.015682698736388452,-0.0031133890119695172
-0.0003853861290225967,0.0030439508795324847,-0.005096803903799366,0.010046484173275808,-0.0018680238767516228
-0.0002227950890501494,0.0026236094449536523,-0.005266506618401355,0.0037840675405982293,0.00017644540616699366
-6.329328468637249e-05,0.0021462207876634617,-0.00531488910055511,-0.0029824292917700846,0.002086886728525293
9.250172514124265e-05,0.001616464645920486,-0.005230442816966787,-0.01008207635419393,0.0032447484855184536
0.0002440666055538817,0.0010398829679529467,-0.005004642714460514,-0.017288805354968188,0.0035844090081077603
0.00039096097007817104,0.00042278335675625207,-0.00463237714879195,-0.02432321387488319,0.0033949376728454046
0.0005328139554309918,-0.0002278694803342166,-0.004112295380924917,-0.03086445370728433,0.002940369975377167
0.0006693099951528005,-0.0009045703010838598,-0.003447057675010568,-0.03657060283743106,0.0022539274336279462
0.0008001772145478319,-0.001599390415218905,-0.002643472244277785,-0.04110365488315578,0.0012455275276319743
0.0009251813688243464,-0.002304088805291326,-0.0017125075448368027,-0.0441556606096032,-4.861841637141006e-05
0.0010441253771552113,-0.003010215916381002,-0.0006691771302194197,-0.04547449218510986,-0.0013594818207306818
0.001156851819631227,-0.0037092134853519876,0.0004676973403105192,-0.04488871941465825,-0.0023358591938878975
0.0012632456783581432,-0.004392513962612143,0.0016758357570132423,-0.042329908545257415,-0.002796383707111818
0.0013632369917339732,-0.0050516389948763556,0.0029299537007636332,-0.03784850856160965,-0.002828697501502195
0.0014568053345675625,-0.005678292664083571,0.004202313824555708,-0.031618942958394104,-0.002644462400791421
0.0015439875543357727,-0.006264446150767904,0.0054633635752734675,-0.02393189763739515,-0.0023504868286148978
0.001624887030257794,-0.006802416038147458,0.006682440395396635,-0.015175697376402657,-0.0018784428629462452
0.0016996796731705418,-0.007284943685534437,0.007828518471873484,-0.005811132281058113,-0.0011439294444485957
0.0017686119605514374,-0.007705282791640441,0.008870970346023008,0.0036566693414654423,-0.00025459966623827217
0.001831989885647199,-0.008057295889669644,0.009780322812490137,0.012708623910633625,0.0004827372656597354
0.0018901620866621526,-0.00833555286610685,0.010528994453619238,0.020845607171972255,0.0008104806705357015
0.0019435021890669363,-0.008535421629076263,0.01109200560369081,0.02762600274333402,0.0008017518121519577
0.001992393412163674,-0.008653144658041614,0.011447648500783803,0.03270334362573473,0.0008745659706576675
0.002037214807728127,-0.008685901702351386,0.0115780996431445,0.03585739960167262,0.0014588408526929114
0.0020783263625599444,-0.00863186269320936,0.011469953836087505,0.037012179970691145,0.0025672352651717636
0.0021160511497184636,-0.008490233358305625,0.011114662844918754,0.03623774475063735,0.0036517603990866747
0.0021506554468668495,-0.00826129141407717,0.010508868508575709,0.033737046747215546,0.003918787030978304
0.0021823296327689607,-0.00794640813186976,0.009654625795775203,0.029821621571418284,0.00289404326490694
0.00221117235990693,-0.007548050873654509,0.0085595130732197,0.024880108109550617,0.0008073144013627585
0.00223717896463915,-0.007069765129818908,0.007236626518501255,0.019342714894848834,-0.0015012559258453081
0.002260234322954148,-0.006516136180586253,0.005704456692959853,0.013644536219468453,-0.003079812015969696
0.0022801111663114768,-0.005892729423245286,0.003986649112727301,0.008191242470626695,-0.003399946625940517
0.002296475940006222,-0.005206006922438433,0.0021116548472629943,0.0033307876940063875,-0.002574329664620939
0.002308903657537391,-0.004463219200672495,0.00011227826067031418,-0.000666758454174696,-0.0011804847321797542
0.0023169004672530745,-0.003672276313131976,-0.0019748736295202907,-0.0036217671286686627,0.00010429973914564089
0.00231992964646789,-0.0028416075729410534,-0.004110038652327017,-0.005452210242743033,0.0007911583600571213
0.002317435979448027,-0.0019800205672988536,-0.006251041087686691,-0.006176908495250303,0.0006815713505726603
0.0023088657414359975,-0.0010965660530657608,-0.00835411795453778,-0.005913798077264932,-0.00014612016999768405
0.0022936830293109438,-0.00020040910659313335,-0.010374811865844328,-0.004870160047830184,-0.0013638888187003215
0.002271385205069773,0.0006992966744000872,-0.012268906726169083,-0.003322404427084355,-0.002438892793783251
0.0022415195187567632,0.001593533950972295,-0.013993382331087916,-0.0015861405709304886,-0.0027809957828272124
0.0022037008234519935,0.002473543777615945,-0.015507366834956014,1.9316058106296155e-05,-0.002012552808969936
0.0021576290200667324,0.003330941368795801,-0.016773067894304657,0.0012064053665806352,-0.00022451197500540952
0.002103105470993386,0.004157822947411403,-0.01775666229179478,0.001750030130310427,0.0019860097065652654
0.0020400488274158607,0.004946863338285413,-0.018429122274840514,0.0015104189455774847,0.0037772371270642755
0.001968510478075825,0.005691403700745193,-0.018766958301876264,0.0004458469182318865,0.0044757449693871455
0.001888687728860973,0.006385525381483856,-0.018752863000070508,-0.0013869938797393853,0.0038703521048415275
0.0018009308612554466,0.007024102810735213,-0.01837624622612101,-0.0038461334448871318,0.002219998902584302
0.0017057409847791817,0.007602830098773665,-0.017633651584097115,-0.0067289861478067306,4.456689040321368e-05
0.0016037594904149163,0.008118223076232542,-0.016529040057257527,-0.009802484041444525,-0.0020885222590336285
0.00149575418678441,0.008567606101624044,-0.015073921646232034,-0.01283063569893671,-0.0036479132072013546
0.0013826080979994016,0.008949094521705416,-0.01328731781660317,-0.015593726770093616,-0.0041607619252901655
0.001265313101191814,0.009261577053458144,-0.011195548270559009,-0.017898887801258846,-0.003336711545620095
0.0011449647839714841,0.009504692392867924,-0.00883184985763694,-0.01958661923731012,-0.001318077292219802
0.0010227518303353928,0.009678789280502066,-0.006235844583576171,-0.020538368270900522,0.0011576385060003689
0.0008999356087212955,0.009784863668749774,-0.003452872768357278,-0.020686118050039004,0.0029613219721629164
0.0007778216242169601,0.009824477231637417,-0.0005331998598332319,-0.020019802310475832,0.0031726144796344075
0.0006577291430146557,0.009799669532899308,0.0024688997111201485,-0.018586779485313357,0.001721186465710874
0.0005409646872844998,0.009712874990677746,0.005496173967969411,-0.016481203775410715,-0.000449478746006303
0.00042879976803075537,0.00956684643069292,0.008489519993660977,-0.013827095888911912,-0.0019342691816134276
0.00032244774594782425,0.009364577555164984,0.011389173456421974,-0.010762333134094517,-0.0018177646606271753
0.00022303380779380757,0.009109215242103305,0.014135925637816979,-0.007428820086004287,-0.0003308277750351301
0.00013155660248897056,0.008803960617526597,0.016672339801317118,-0.003968415173470103,0.0013223371932788949
4.884649493692074e-05,0.008451968909169553,0.018943949706914643,-0.0005194619829836365,0.0018807585148433229
-2.4471270034170663e-05,0.008056263583470743,0.02090042870341605,0.00279123656885571,0.0010016244821001584
-8.800210612704506e-05,0.0076196765234571775,0.022496714242332204,0.0058616812000053175,-0.0004683488605292907
-0.00014159494474101539,0.007144816866141775,0.023694063867408105,0.00862867346251482,-0.001151925333279297
-0.00018534489600959868,0.0066340640259974345,0.024461012559270738,0.011076185329388035,-0.00022810227872711026
-0.00021958831479496483,0.006089579879640337,0.024774202517264518,0.013234214771558039,0.0018929100874361937
-0.00024489025785278735,0.005513339279604524,0.02461906322072027,0.015168613088745607,0.003820504798473058
-0.000262022197910065,0.004907181367297711,0.023990326061315907,0.016965229097471776,0.004155470573450097
-0.0002719285419926923,0.004272882615318561,0.022892359818113907,0.01871163811008788,0.0024439015774739854
-0.00027568339347827924,0.003612247254814148,0.02133931184579088,0.020478094046992388,-0.0005676584993152517
-0.0002744414956913871,0.0029272062998582124,0.019355039748690777,0.02229856968663346,-0.0034912132981128373
-0.00026938743912990827,0.0022199161522682073,0.01697282296936699,0.02415379443559708,-0.005190032196304516
-0.0002616854893604701,0.0014928508688159504,0.014234852120630751,0.02595977798714911,-0.005355569070360035
-0.0002524310333132701,0.0007488847012987389,0.011191501872359838,0.027565372846264438,-0.004450213752669674
-0.0002426052631498502,-8.639293510617801e-06,0.007900397754152886,0.028760326265911424,-0.003202835360050043
-0.0002330366443294124,-0.0007758617203381191,0.004425289461007427,0.0292924425115527,-0.002109875483075025
-0.00022437362803402058,-0.0015483885911667947,0.0008347471535599645,0.02889104503243721,-0.0012656549322456472
-0.00021707130835026418,-0.0023213069252185263,-0.0027992944636077858,0.027294615952728158,-0.0005101726156929683
-0.00021139102542177182,-0.0030892318511681694,-0.00640310847659547,0.024281892718479105,0.0003415580071823924
-0.00020740889869497411,-0.0038463772514042856,-0.009902819939611776,0.01970564737653925,0.0013834235686991754
-0.00020502916027475277,-0.004586641536695122,-0.013226074959599281,0.013526079621886088,0.0026163638881663005
-0.0002040008021545879,-0.005303704518786542,-0.016303691504419897,0.005837740893382706,0.003943554934592971
-0.00020393907014951016,-0.005991136361327449,-0.019071254245222505,-0.0031172010761387247,0.005110534452021458
-0.00020435416617896687,-0.006642520787866427,-0.021470618306695003,-0.012954259446509731,0.005683265853011303
-0.0002046875163147489,-0.00725159106078826,-0.02345128529439857,-0.023170639669932658,0.005194304099691859
-0.00020435275121343497,-0.007812371617143301,-0.02497161238555673,-0.03318352107149535,0.0034474972757149074
-0.00020277647196183338,-0.008319314759019716,-0.02599981585266506,-0.042375974825408155,0.0007808599620856843
-0.00019943407194447554,-0.008767422394722035,-0.0265147361094497,-0.050144454918220956,-0.0019561651297610484
-0.00019387765698312506,-0.009152346252741937,-0.026506340797554047,-0.05594373779504587,-0.0037768697957948918
-0.0001857549309851214,-0.009470463558494588,-0.025975952583956137,-0.059326816711397265,-0.004080180148923178
-0.00017481891474303043,-0.009718927319845206,-0.024936197344796098,-0.05997792924318069,-0.0029842042523130705
-0.00016092882126522655,-0.009895691569989349,-0.02341067647209415,-0.05773708026587496,-0.0012481721364223403
-0.00014404302176214667,-0.009999513345144723,-0.02143337512212257,-0.05261478383261134,0.0001616324817400181
-0.0001242058974137148,-0.010029934963464247,-0.0190478262491655,-0.044796334228710134,0.0005812677261342583
-0.00010153081199842061,-0.009987251148217392,-0.0163060568523588,-0.0346352761443842,-6.197744685169794e-05
-7.618086440687471e-05,-0.009872464693804506,-0.01326734683937924,-0.022635700742902137,-0.0013012224564197727
-4.8347850867815045e-05,-0.009687232370045163,-0.00999683287905377,-0.009423105936612946,-0.002429904074466851
