Delta,Theta,Alpha,Beta,Gamma
-8.39886216275497e-09,-1.4213712986519236e-08,-1.4213712986519231e-08,-4.70407234846309e-06,-8.495023454413393e-05
-7.47510392433724e-08,-1.26005854866709e-07,-1.2544151917100597e-07,-3.864546700619683e-05,-0.0005612125893860948
-3.3575581671238817e-07,-5.630342487358956e-07,-5.56938326756447e-07,-0.00015648846107641027,-0.0016496755332270617
-1.038558339212188e-06,-1.7300810925363332e-06,-1.6964658691203682e-06,-0.00042508738888314676,-0.002745466772097227
-2.5343373026410337e-06,-4.187779194173108e-06,-4.059880810777472e-06,-0.0008860514259375286,-0.0024214560651584765
-5.26250628124941e-06,-8.612926338190359e-06,-8.231470685055569e-06,-0.0015262775897761898,0.00031649383401527583
-9.735961090036263e-06,-1.5759076926022873e-05,-1.4802079915799677e-05,-0.0022684789155363624,0.004748281423537423
-1.6526519435808227e-05,-2.6416666728177912e-05,-2.430662964207271e-05,-0.002979912879943829,0.008509823701798118
-2.624742520177368e-05,-4.136808069828237e-05,-3.7158743465452544e-05,-0.0034935218325877824,0.009085355103580625
-3.9529893366220214e-05,-6.13334049928653e-05,-5.35805915102377e-05,-0.003635045644804243,0.005570783641739873
-5.699370015462814e-05,-8.69079635543098e-05,-7.353158885854396e-05,-0.003251702580145504,-0.0006365805259521263
-7.921571925707474e-05,-0.00011849946218742182,-9.664634521550121e-05,-0.00224023065928046,-0.006701978803637712
-0.00010670202883704824,-0.0001562753570522907,-0.00012219470366868433,-0.0005722070400202599,-0.010090793144579412
-0.00013986739436585782,-0.0002001276231762709,-0.00014907243228441092,0.001687318818375796,-0.009937841580676308
-0.00017902211577422827,-0.00024965520767639723,-0.00017582310517112837,0.004373415787661539,-0.007195217599328281
-0.000224363521605521,-0.0003041595565301003,-0.00020068569114828854,0.007231450585944768,-0.0036566211543800744
-0.0002759697110505105,-0.0003626489981004678,-0.00022166188061308842,0.009944046351942338,-0.0007100455151605654
-0.000333795583216672,-0.00042385182520127194,-0.0002366006011499059,0.012170115489135663,0.0012952305157260715
-0.0003976730242941946,-0.00048624088637057533,-0.00024329959577731191,0.013588541856189434,0.0027876346774478515
-0.00046731643802560646,-0.0005480711059809059,-0.00023962198967660385,0.013939613572311015,0.004237096521915912
-0.0005423322949195607,-0.0006074268695639249,-0.0002236207922087809,0.013059615435033629,0.005616333864186174
-0.0006222295874672016,-0.0006622730784493415,-0.0001936609058999026,0.010905684396266883,0.006429275766887644
-0.0007064288841314664,-0.0007105050992909273,-0.00014852977023351258,0.007568127450211685,0.006154870409340584
-0.0007942704049113004,-0.0007499975738221518,-8.753294871879472e-05,0.003267150848565536,0.0046659522781427295
-0.0008850235859026569,-0.0007786555512806953,-1.057500205391556e-05,-0.0016676040358959195,0.0023082838322563176
-0.0009778999120435626,-0.0007944701504538504,8.177478789452865e-05,-0.006832627509350911,-0.0003284068567591779
-0.0010720679009637401,-0.0007955759404979679,0.0001882368392385986,-0.011794980343829748,-0.002687476750081929
-0.0011666666898840752,-0.0007803031296052126,0.00030680430695718985,-0.01613750067145167,-0.00436869594056058
-0.0012608150509293922,-0.0007472184878814422,0.00043476143425457005,-0.01949825390901025,-0.00511635965974537
-0.0013536156437045554,-0.0006951542790533515,0.0005687373942870181,-0.021601275828979024,-0.004820724039331111
-0.0014441573501540975,-0.0006232298326022971,0.0007047892802216585,-0.022278418441541416,-0.003602023778967271
-0.0015315190894648243,-0.0005308713623199642,0.0008385060254898016,-0.021482386628954908,-0.0018751308654101312
-0.0016147764094649039,-0.00041783199589808884,0.0009651280911525954,-0.019289719210665583,-0.00024186081814834887
-0.0016930096789269321,-0.00028420973266377134,0.001079681595709846,-0.01589191749512421,0.0007963485154733581
-0.0017653123570190693,-0.00013046050485506422,0.0011771257099483091,-0.011574662490996847,0.0011124973875202275
-0.001830799863440872,4.2592909231082536e-05,0.0012525081766399475,-0.00668818533297864,0.0009838214875876935
-0.0018886217671351669,0.00023375162376474358,0.0013011198357093415,-0.0016138849994324007,0.0008353675541716074
-0.0019379797356606342,0.0004414271175335594,0.0013186396935330562,0.003268438226301625,0.0009070551154442787
-0.00197815053935143,0.0006636250242133558,0.0013012679342534169,0.007611022213948477,0.0011261934307504296
-0.0020085097586746503,0.0008979340495099586,0.0012458508929364264,0.011126506586811774,0.00127856365766629
-0.0020285507996575967,0.0011415293961139542,0.0011500037635186248,0.013613758433064876,0.001290048411190264
-0.0020378963908321,0.0013911953366557287,0.0010122319802608815,0.01497791565299297,0.0013247399691161835
-0.002036303841608629,0.001643364224636491,0.0008320446970551308,0.015239339324716083,0.0015850209015599176
-0.002023667596379869,0.0018941651904173277,0.0006100498144273207,0.014527333644142265,0.0020032274640618035
-0.0020000212768316347,0.0021394780048159547,0.0003480226957387083,0.01305881881274279,0.0021523940117653623
-0.0019655378772698694,0.00237499357263774,4.894742708298298e-05,0.011106896621005715,0.0015273014894512703
-0.0019205243584918476,0.002596286492686406,-0.0002829658044397164,0.008966286948977614,5.101786121997241e-07
-0.0018654078643598859,0.0027989031729884163,-0.0006422850050149414,0.006920976559701341,-0.0019429449515298222
-0.001800714501293609,0.002978462371624828,-0.0010223862626367725,0.005216018994164218,-0.0034424433634817155
-0.001727045118223375,0.0031307589474757415,-0.0014155185894928772,0.0040332750905142075,-0.0038324684196625524
-0.0016450531337271444,0.00325186067237635,-0.00181291298162212,0.003471517478751515,-0.003109925088346672
-0.001555426995802727,0.0033381924158296995,-0.002204939093194212,0.0035336038214174794,-0.0019182836488174223
-0.0014588765973056594,0.0033866078515614644,-0.0025813055305483534,0.004124719551187843,-0.0010488688468384324
-0.0013561215389766448,0.0033944514648549893,-0.0029312957220932277,0.005064239434931061,-0.000849262586027778
-0.0012478803138196183,0.003359611742735161,-0.003244032074959417,0.006110141290915862,-0.0010024553725605546
-0.0011348617566510608,0.0032805626975874894,-0.0035087639467944664,0.006991449769644063,-0.0008378401288444944
-0.0010177611587938486,0.0031563893060176235,-0.003715175717657497,0.007442958245596602,9.040828169713526e-05
-0.0008972622428019439,0.002986794805812566,-0.003853708137160559,0.0072376767578545415,0.0016220863007994379
-0.0007740437064242139,0.002772092317288265,-0.003915881031528013,0.0062145207084043814,0.003093815746280178
-0.0006487872871583421,0.002513186423456784,-0.0038946020976609146,0.004299882367512854,0.003818824051110462
-0.0005221845641550206,0.002211549929078257,-0.0037844472391901137,0.001521386569296442,0.003552268573441529
-0.0003949416283619346,0.0018691977245147073,-0.003581901974825747,-0.0019886683901619044,0.0025936480804646333
-0.00026778276854933636,0.0014886562335576941,-0.003285557982929475,-0.00600245187361835,0.0014884793567900873
-0.00014145505592192225,0.0010729257355727318,-0.0028962612562149544,-0.010218677908599897,0.0006030667871809903
-1.6734914031331254e-05,0.0006254343286175455,-0.0024172081397606467,-0.014295059184012832,-8.493043287611791e-05
0.00010556375051555806,0.00014998498951185142,-0.0018539841934065073,-0.017886079188757335,-0.000841648336964991
0.0002245814476717534,-0.00034930077440836863,-0.0012145402916507269,-0.020680043385158088,-0.0018313486047755096
0.0003394069012047835,-0.0008680387493555734,-0.0005091016396592049,-0.022430098117895463,-0.002869379272717066
0.0004490741197633396,-0.0014016343183837232,0.00024999181673836284,-0.022975744591773897,-0.003476476572306598
0.0005525633093282343,-0.001945329754748076,0.0010485116698538707,-0.022253493492579435,-0.0031946280982819465
0.0006488054677585738,-0.002494246381731121,0.001870628848916504,-0.020297087385680136,-0.0019299340751536154
0.0007366900813227471,-0.0030434222965214155,0.0026992552135264927,-0.017228880622626484,-7.618599145636943e-05
0.0008150753208036737,-0.0035878464703048914,0.0035164295942145744,-0.013244486290562626,0.0016666562282471261
0.0008828004690963058,-0.004122489525888653,0.004303738204153767,-0.008592840951244234,0.0026594485168816664
0.0009387007648905227,-0.00464233078179647,0.005042759096036893,-0.0035536983537203743,0.0026457642381668913
0.0009816250496082822,-0.005142380878645086,0.005715519919088526,0.001585474217498151,0.0018416724579212967
0.0010104563401200472,-0.005617699835535705,0.006304957282023288,0.00655111667872951,0.0007606912930045566
0.0010241349242587521,-0.006063411349214295,0.006795364950427137,0.011101665646367538,-9.819892569422814e-05
0.0010216833312146605,-0.006474714605936947,0.007172817881119494,0.01504060083288134,-0.0005018274738940945
0.0010022329371759734,-0.006846894195086729,0.007425560360192403,0.018223996824546583,-0.0005326187569597724
0.000965052735124302,-0.0071753274224003625,0.0075443486915149046,0.020563192195933423,-0.0004378492613657832
0.0009095810378965465,-0.007455487957537616,0.007522740363042283,0.022023540979615206,-0.0004117748410006072
0.0008354598544001898,-0.0076829465615515305,0.007357321109647111,0.022619632902526582,-0.00047741321695923394
0.0007425696194700356,-0.007853373150335595,0.0070478593067381246,0.022406518221277188,-0.0005443002351964875
0.000631060182471142,-0.007962547343250217,0.006597376084641674,0.021466486481852266,-0.0005693015760211056
0.0005013739337245217,-0.008006384398952746,0.006012122033910631,0.019892433739324332,-0.0006561666892503158
0.0003542590036211286,-0.007980979547403112,0.0053014578046759915,0.017771127626676757,-0.0009775511600402947
0.00019077329295155487,-0.007882668544587844,0.004477643702785408,0.015171047493151096,-0.0015638933926328746
1.2281589457830965e-05,-0.007708099467359881,0.0035555486124036425,0.012138502912032827,-0.0021477654782346197
-0.00017955299577654228,-0.0074543123565614725,0.0025522890335969023,0.008702549188389882,-0.0022455573752248083
-0.0003827847310908406,-0.00711882777024243,0.0014868062722800082,0.004885692005858162,-0.0014791567371583206
-0.0005952115178481607,-0.00669974841292441,0.00037938821394156155,0.0007158340485845871,8.131418271272291e-05
-0.0008144141944029181,-0.006195876128773526,-0.000748854626761554,-0.0037636651639410632,0.0018454687623930717
-0.0010378075751928087,-0.005606839738861429,-0.0018765411244428204,-0.008485842082385063,0.0030243269274868056
-0.001262697492845465,-0.004933221566021624,-0.0029825737048818574,-0.013351779200128578,0.003161500989895214
-0.0014863361184081156,-0.004176667300911237,-0.00404666573643696,-0.01822072791402908,0.0024837668297184334
-0.0017059697351271645,-0.003339967589870293,-0.005049818094964439,-0.02290075791121534,0.0017658645861044506
-0.0019188776757526566,-0.0024271080533430616,-0.0059747310296415,-0.027145403176103457,0.0017518216078353148
-0.0021224052030576744,-0.0014432918969387943,-0.006806147087436481,-0.030662329958815227,0.0025348314720982507
-0.0023139940678550018,-0.000394941247632529,-0.007531124960201267,-0.03313670551880328,0.0033798130445015892
-0.0024912120589070824,0.0007103205469386248,-0.008139242187303261,-0.03426638419005971,0.0031810214320945615
-0.002651779322569226,0.0018637091838102856,-0.008622720784366556,-0.03380151378716736,0.0012752548916978585
-0.0027935875985635877,0.003055348144071902,-0.008976469515350393,-0.031580240482012745,-0.0019677640532560145
-0.002914710298580258,0.004274368273079093,-0.009198042262277549,-0.027554930496506022,-0.005237898496551702
-0.0030134054355732878,0.005509033143397898,-0.009287521531560091,-0.02180742927521507,-0.007046753436649272
-0.0030881169107663878,0.006746878914426707,-0.009247344140879264,-0.014554442468636629,-0.0066555560218400246
-0.0031374800393101842,0.007974856769002583,-0.00908208788020896,-0.006143769516509031,-0.004523171695194631
-0.003160334057464504,0.009179471538765008,-0.008798232835953648,0.0029600918712741377,-0.0019539729099014727
-0.003155739722001491,0.010346918204169315,-0.008403902968212891,0.012203923750571255,-0.00019119635475638887
-0.0031229969813053554,0.01146322330946554,-0.007908588043425887,0.020988884096155687,0.00040112375599935017
-0.0030616579926357516,0.012514397654930544,-0.007322846686820269,0.028725889297854898,0.00048722084630376075
-0.002971534088737597,0.01348660069579456,-0.006657997327613791,0.03489530813403246,0.001140844208256404
-0.0028526992994537302,0.014366310081826277,-0.005925810734571038,0.03910007294347468,0.0029150859930481775
-0.0027054950185708055,0.015140486416613488,-0.005138220707643976,0.04110247753817603,0.00528671194051231
-0.0025305391225926804,0.015796725718546206,-0.0043070660808687215,0.04083970461765821,0.006899272734708438
-0.002328739219045219,0.016323398524200672,-0.0034438693465661885,0.03841904077602485,0.0064618856852696124
-0.0021013060815356687,0.01670978091736254,-0.0025596494120018127,0.034097925271819714,0.0036892040926834488
-0.0018497618615368953,0.01694618524883412,-0.0016647622870524315,0.028254916553659713,-0.0003753745604709184
-0.0015759389011112438,0.017024096024779285,-0.0007687649088576129,0.0213559278896379,-0.003897305662249917
-0.0012819676641505462,0.016936311610655695,0.00011969846871397253,0.013917694320136719,-0.00531153426224675
-0.0009702544899427176,0.01667708848480497,0.0009929845044493125,0.006469295472625176,-0.004220435075481408
-0.0006434503567597023,0.016242283861473826,0.0018445104745825683,-0.0004868103972811073,-0.0015623681334679743
-0.0003044110008081644,0.015629493918108143,0.0026687843959651712,-0.006511401651343786,0.0010227836630168912
4.385195352696519e-05,0.014838186037504567,0.003461406367503113,-0.011259314164190253,0.0021840504887735025
0.00039822847578979275,0.013869822266392459,0.00421904134887863,-0.014501933932131028,0.001562862638409495
0.0007555737859137222,0.01272796777625484,0.004939360790160617,-0.01614061587635251,-0.00019042043109528115
0.001112773724475523,0.011418374925849248,0.005620948054048019,-0.016211551874490925,-0.0019992650303634644
0.0014668069650876896,0.009949033284757653,0.006263163256209439,-0.014882447444240311,-0.003074858503278693
0.001814800853211358,0.008330179410584237,0.006865967693543969,-0.012440183268719884,-0.0032732894249149543
0.0021540802952948464,0.0065742653221183694,0.007429714304482825,-0.009267886127649222,-0.002929328398605246
0.00248221093676342,0.004695888293704289,0.00795491518907453,-0.005810813401242992,-0.0023996850756694737
0.002797037707280783,0.00271168482518886,0.008441997957035798,-0.0025331944605945242,-0.001728008671503924
0.003096718023664622,0.0006401890606033407,0.008891060200690071,0.00012870201136938196,-0.0006910033326416804
0.0033797470219279866,-0.0014983468309244013,0.00930162845006312,0.0018103043748486625,0.0008544187080075579
0.003644971606577606,-0.0036821731970933928,0.009672427221796861,0.0022530029082284972,0.002652245638387854
0.003891591268903786,-0.005888304622111348,0.010001165919059871,0.0013252950543279887,0.004056353826117084
0.004119145790001688,-0.008092818779797617,0.01028435492843597,-0.0009697143995687602,0.004396782267638003
0.004327491949222162,-0.010271184474166833,0.010517165079743124,-0.004498725411679817,0.0034436219501639415
0.00451677247652037,-0.012398608712523133,0.01069334527704639,-0.009011959847458981,0.0016241268478128941
0.004687380679285523,-0.014450392214290671,0.010805211470752935,-0.014163766907018562,-0.00017696307973036695
0.004839923738280525,-0.016402283556300377,0.010843716808011527,-0.019538335004446312,-0.0011122308371565063
0.00497518681279946,-0.018230823799605594,0.010798608284156175,-0.024679351229305743,-0.0008462517101954677
0.005094098924553328,-0.019913675714605044,0.01065866990178663,-0.029122811867348514,0.0002766481738422044
0.005197700391945352,-0.021429934078627286,0.010412046954571996,-0.03243206927639489,0.0014514222157099913
0.005287110928224829,-0.022760414959327048,0.010046641778681939,-0.034233425715943296,0.0018676210308817569
0.005363497832888108,-0.023887921673302698,0.00955056903871164,-0.034249325257570455,0.0011378259167771111
0.0054280447251133694,-0.024797483714065153,0.008912657904108718,-0.032325171836040466,-0.0005188070040371552
0.00548192197809988,-0.025476564138952756,0.008122987564626098,-0.028445945924230602,-0.002409674045668949
0.005526259441706723,-0.02591523234407659,0.007173439789610069,-0.022740459819490223,-0.0037322181363872637
0.005562120280331323,-0.026106302622198607,0.006058247965607496,-0.01547352713293747,-0.00397765633469482
0.005590473203392485,-0.026045441926686633,0.004774518869884178,-0.0070280449407378225,-0.0031673181809403787
0.005612160726751526,-0.025731249933293805,0.0033227043915956362,0.002121018551967219,-0.001792177182940065
0.005627863818890501,-0.025165310114483433,0.0017070061400263833,0.011440005021658605,-0.0004819871155503848
0.005638066837421599,-0.0243522048395369,-6.429656426490224e-05,0.020377358096923794,0.00040161947310645384
0.005643028543921856,-0.02329948485895308,-0.0019786000889259144,0.02841054158237808,0.0009790831184623761
0.005642763727221595,-0.02201758641435349,-0.004018816798547326,0.03509451500771405,0.001704467920667394
0.005637036493163744,-0.02051969592505674,-0.0061633122377723676,0.04010406729319806,0.002930252161503129
0.00562536331059077,-0.018821567954319336,-0.008385952306393586,0.04326189859067765,0.004493973927760535
0.005607023729934241,-0.01694130298724578,-0.010656271283593007,0.04454754826436684,0.005665964556061849
0.0055810791899280135,-0.014899087736030854,-0.012939764224886354,0.04408741505333367,0.005561243962163591
0.00554640298434185,-0.012716896635632666,-0.015198299517201353,0.042130148519637124,0.003762954750882823
0.005501724477766908,-0.010418153720076954,-0.01739064431844214,0.03901257732845594,0.0007029636015885371
0.005445687386930234,-0.00802736019484019,-0.019473098323011993,0.03511965118934434,-0.002516828463434514
0.005376917498789103,-0.005569700957724429,-0.021400235847092944,0.03084016300334319,-0.00477506669574812
0.005294092704197446,-0.0030706476053042743,-0.023125756937883414,0.026520515997642373,-0.005598647022691242
0.005196009203640039,-0.0005555735102663796,-0.02460344244165556,0.022421427627610693,-0.005361097180404785
0.005081640912058959,0.0019506093292509057,-0.025788198227449988,0.018684896527673293,-0.004873578683678685
0.004950191631609339,0.004423786832674496,-0.026637165369466653,0.015318481119385089,-0.004694536955285225
0.004801139624950898,0.006840948580168071,-0.02711086954900147,0.012200424485093763,-0.004695375316446197
0.004634272440341285,0.009180456116004265,-0.027174383226910168,0.009104300621493838,-0.00420766235681969
0.004449708532424725,0.011422265657592473,-0.0267984742026215,0.005738301653943841,-0.0026144384375102353
0.004247903126615952,0.013548099430802402,-0.025960711046618595,0.0017932671205963526,9.165933728086322e-05
0.0040296384575682544,0.015541565280109962,-0.0246464905321925,-0.0030058475135207752,0.003211519892764324
0.003796000904624111,0.017388229034507725,-0.022849948467963965,-0.008849981002688447,0.00575229851458959
0.0035483480064240585,0.01907564549159634,-0.02057471626164965,-0.015802989010350838,0.00701058513114469
0.0032882672066243583,0.02059335243130938,-0.017834490493650858,-0.02377184482634282,0.006898487907132984
0.003017527348399832,0.021932831057675673,-0.014653388313557874,-0.03249519589441275,0.005834893234118282
0.0027380248361729602,0.02308743814415706,-0.011066064970973597,-0.0415523872045508,0.0043718923813205485
0.002451728457187147,0.024052318896739026,-0.007117572206382462,-0.0503913109565141,0.002879995310172716
0.002160627993173396,0.024824311481824082,-0.0028629412002566168,-0.05837106695004633,0.0014839200125833407
