Delta,Theta,Alpha,Beta,Gamma
1.0952260632722911e-09,1.8534926061462336e-09,1.8534926061462328e-09,6.134191203187123e-07,1.1077656610012871e-05
9.614379773162591e-09,1.6205818102159457e-08,1.6132227757373264e-08,4.964784894364343e-06,7.183498383323171e-05
4.300169613395295e-08,7.210607966108445e-08,7.132011658053354e-08,2.001981408199559e-05,0.00021030889756227026
1.3433123465782597e-07,2.238045786883816e-07,2.1949063403802486e-07,5.516246023681136e-05,0.0003652235194063403
3.3628465291796913e-07,5.56063579739464e-07,5.395829337193653e-07,0.00011951596585636301,0.000398872482009698
7.260677138597e-07,1.1904047881752798e-06,1.1405817426831731e-06,0.000219697306369253,0.00021350734462091843
1.409254945910366e-06,2.288759141046029e-06,2.16094720745061e-06,0.00035712631797364127,-0.0001698069818897982
2.5205515658376487e-06,4.0510884925074365e-06,3.760888098772225e-06,0.0005246581276408834,-0.0006324223321542715
4.222025155927849e-06,6.7080529396126994e-06,6.1088504715628065e-06,0.0007043145937006569,-0.0010184977876317245
6.700906581198209e-06,1.0512486598182597e-05,9.366497291824398e-06,0.0008681656628739326,-0.0011749655382632172
1.016894266198706e-05,1.5733202711518876e-05,1.3676255416935612e-05,0.00098302874308652,-0.000978727001857826
1.486388908599836e-05,2.2652184431982262e-05,1.9152926841343812e-05,0.0010176740087225154,-0.0003883964656191455
2.105197287695947e-05,3.1563157005606286e-05,2.58776342586904e-05,0.0009498517349230478,0.0004833188059217102
2.902890453862682e-05,4.2767428418469204e-05,3.3890172922253233e-05,0.0007703932893203346,0.0013396227326036806
3.911679203215106e-05,5.656261728302197e-05,4.317564379759906e-05,0.0004828614537244691,0.0017799243571649094
5.1655158691019695e-05,7.32215287709854e-05,5.3643120097484517e-05,9.914669311000452e-05,0.001489935370657634
6.698584510602316e-05,9.296133699559956e-05,6.509731779325417e-05,-0.00036682635209122315,0.00044890467380969963
8.543326928418289e-05,0.00011590627569346408,7.720756293127119e-05,-0.0009042622691761557,-0.0009801670839945573
0.00010728269020545723,0.00014204908721048332,8.948050500559126e-05,-0.0015069355051331003,-0.0021625597432636612
0.00013275935534750327,0.00017121681498810263,0.0001012432190036806,-0.0021698610142102392,-0.002476720721476877
0.00016201068548030945,0.0002030451240022485,0.0001116415446902826,-0.0028821859888596927,-0.0016337698508601592
0.0001950923001487425,0.0002369628281918294,0.00011965543674506725,-0.003619007446720527,0.0001400606529882235
0.00023195726973911695,0.00027218569826395754,0.0001241298700522151,-0.004335529516327338,0.002165049592826126
0.00027244707018384077,0.00030771694079990297,0.00012381760801672927,-0.004966380824142822,0.0035948643711563636
0.00031628272122296224,0.0003423516842536321,0.00011742968335314324,-0.005431198492434465,0.0037943058430409526
0.00036305556393046633,0.00037468444561540435,0.00010369083619856499,-0.005645372868723526,0.002629308262559458
0.0004122186532810079,0.00040312110497792625,8.139956260884653e-05,-0.005533022471227029,0.000535035824279592
0.00046308097696377235,0.00042589891609273435,4.9494279722629626e-05,-0.005038651857205875,-0.0016681883740285014
0.0005148068162601324,0.00044111806875679003,7.126877247236269e-06,-0.004134864520300143,-0.0031299043216114135
0.0005664212473652247,0.00044678583403482503,-4.625785049877101e-05,-0.0028254989250680695,-0.003340861095673658
0.0006168206598203746,0.0004408704982296063,-0.0001108424689411856,-0.0011455027064453188,-0.0023555787112839416
0.0006647855286272378,0.0004213593949939189,-0.00018636537985503834,0.0008404170044836737,-0.0007577465411536135
0.0007089926691066355,0.00038631536228421096,-0.00027206573620853987,0.0030392671030065295,0.0006304107148244116
0.0007480260139431845,0.0003339291457433976,-0.0003666492563819405,0.005332179202634844,0.0011683066963617673
0.0007803875958954827,0.0002625698638641483,-0.0004682740898457077,0.007580039281995626,0.0007373471011351658
0.0008045123740786581,0.00017083895600988495,-0.0005745519271378912,0.009634440674793784,-0.00019104660000305042
0.0008187907443742397,5.763321463686268e-05,-0.0006825589223169022,0.011354096113650724,-0.000821038127155035
0.0008216010304083576,-7.778038453629451e-05,-0.0007888536605282946,0.012624089100498583,-0.0005045512658138371
0.0008113518407404881,-0.00023567970161181485,-0.0008895036456778252,0.013373270548071943,0.0008421125395393381
0.0007865319494685309,-0.0004157979014427325,-0.0009801255480710828,0.0135847436085551,0.002626379755407424
0.0007457639631998229,-0.000617237349662907,-0.0010559464198017972,0.013295863162965306,0.0038541323247180265
0.0006878576815505468,-0.0008383953504147437,-0.0011118928182853151,0.012586920017296221,0.003649388780826875
0.000611859742208695,-0.0010769086616637163,-0.001142712311996527,0.011560817134188911,0.0017367419734129375
0.0005170977186076343,-0.0013296206372365024,-0.0011431275830391429,0.010318692258001805,-0.0013697241955434058
0.0004032187562647692,-0.0015925711683255005,-0.0011080184717665068,0.008937733019608004,-0.004562397735999983
0.00027022400615208146,-0.0018610072473351242,-0.001032623929491763,0.007456674130283881,-0.006616994132993473
0.00011849942892169637,-0.002129412853996841,-0.0009127559778288227,0.005871624833773158,-0.006726090931530044
-5.11591211731526e-05,-0.002391561104849727,-0.0007450215356275767,0.0041410401783213155,-0.004857968456001259
-0.00023753178484134366,-0.0026405965636211925,-0.0005270525586491975,0.0021958237559269313,-0.0017884332150126833
-0.0004389780215613952,-0.00286915703561309,-0.00025774591189681986,-4.9524127258724096e-05,0.0012241994988929487
-0.0006534614546429193,-0.0030695393240633595,6.249101563347331e-05,-0.002686064743003256,0.0030110134327106484
-0.0008785951027253745,-0.0032339037605631266,0.0004315030704034048,-0.005797765662177609,0.0030712282325452496
-0.001111700802833008,-0.0033545031771530687,0.000845181684458951,-0.009443644208982159,0.0018577226706444486
-0.0013498749524704875,-0.003423918974663937,0.0012973161440001935,-0.013633830219745421,0.000557689408756417
-0.0015900553408755315,-0.0034352915975734595,0.0017795206181186688,-0.018303677939169902,0.00041120261493014223
-0.0018290885809301768,-0.003382541073004261,0.0022812449467813087,-0.023294112967942232,0.0019174743328753087
-0.002063800744077467,-0.003260578746340079,0.002789868974119832,-0.02834637499313011,0.004425955122082818
-0.0022910728847160044,-0.003065509905705113,0.0032908789744302727,-0.03311483376907676,0.006437089915025298
-0.002507919076851804,-0.0027948202277474584,0.003768128875143073,-0.037195340119616095,0.0064975367799290085
-0.002711560651296551,-0.0024475326588225465,0.0042041925759259005,-0.04016238807287458,0.004146826873045964
-0.002899489493830401,-0.0020243206191517833,0.004580811378134321,-0.041608196289745276,0.0002816468813772685
-0.003069515908335372,-0.0015275688223903624,0.004879431904879073,-0.04117961006959003,-0.0033392531271013584
-0.0032198004178211562,-0.00096138053758137,0.005081819230943534,-0.038611594929594276,-0.005146138257750708
-0.0033488712614616264,-0.0003315350273449369,0.005170722404520489,-0.033756847110528294,-0.004673635491888671
-0.0034556293483320798,0.00035460038954413225,0.005130566957802034,-0.026609801875140067,-0.002744989172033305
-0.0035393413692627524,0.001088200384720291,0.004948149142193221,-0.017321953314402536,-0.0008445271526132499
-0.0035996215673593296,0.0018591502784160157,0.0046133061452510995,-0.006205569691871656,-0.00014878714058004917
-0.0036364038953540473,0.0026562472256106283,0.0041195345108966,0.006275427566067297,-0.0008740719978193839
-0.0036499077591886178,0.0034674249928054205,0.003464527553730299,0.019526841939285222,-0.0023124858984736236
-0.0036406007256474544,0.004279992920506671,0.002650604443634068,0.03285647529220554,-0.003420807038745728
-0.003609160256651203,0.005080881890463588,0.0016850090778232675,0.04551593985953628,-0.003487996092999676
-0.0035564350831217982,0.0058568926432567055,0.000580063269113973,0.0567502257903196,-0.0024538377055062953
-0.00348340670866705,0.006594942093502213,-0.0006468365877727231,0.06585169210866922,-0.0007788162126962423
-0.0033911526834635376,0.007282301488674007,-0.001973387373587298,0.07221326676210697,0.000922338702291988
-0.0032808140876129724,0.007906819169883875,-0.0033727158330869923,0.07537504142306035,0.002195484499242179
-0.0031535685874955715,0.008457122905917889,-0.004813880860607302,0.07505990237850396,0.0028677249705164913
-0.00301060781512677,0.008922801620468575,-0.006262528656492035,0.07119631891352511,0.0030105999773644932
-0.002853115865907626,0.009294569967045738,-0.00768167976473188,0.06392791900676904,0.002840367656295132
-0.002682246518015423,0.009564418021175171,-0.009032624333580798,0.05360901238557419,0.0025966728966590603
-0.0024991002216214362,0.009725742671786197,-0.01027590449487647,0.040783925867481946,0.002399851175268113
-0.0023047054130257943,0.009773451644018424,-0.011372365839446855,0.0261483160195404,0.0021327026995030247
-0.002100009330714209,0.00970403056790882,-0.01228425832098061,0.0104939218620801,0.0014596510669566288
-0.0018858805049679947,0.009515569304233048,-0.01297635940688135,-0.005356689392879773,5.8043754152601824e-05
-0.001663120635711581,0.00920775195764489,-0.013417083085136481,-0.020615076776440647,-0.002034187527765744
-0.0014324809048036514,0.00878181997455916,-0.013579533454591125,-0.034581429016823775,-0.004215471053632977
-0.0011946784315187073,0.00824051679343845,-0.013442463898258795,-0.046682436747108175,-0.005496980488198012
-0.0009504112534069918,0.007588018041422503,-0.012991109817943412,-0.056491517682382086,-0.005036844003079263
-0.0007003721631283573,0.006829848029509232,-0.012217869553069475,-0.06373382766974356,-0.0027070035964281525
-0.00044526144063071276,0.005972783894877212,-0.01112281157903475,-0.06827931650681839,0.0007175783149040065
-0.0001857970144795964,0.005024751365564461,-0.009713988097636234,-0.07012668852497686,0.003918123546432807
7.727978538770839e-05,0.003994716724011348,-0.008007539725736671,-0.0693813872046789,0.005716651623722525
0.00034320281205125054,0.002892576204500828,-0.006027584955244232,-0.06623192803771862,0.005631624206338342
0.0006111811548595146,0.0017290392606895124,-0.0038058986250032187,-0.06092945975709415,0.003970660974729685
0.0008803968260175487,0.0005155005954221658,-0.0013813907591141506,-0.05377364540788753,0.0014908698812487694
0.001149998479381464,-0.0007361001475037261,0.0012006017083932045,-0.045104096962662925,-0.0010454604848205884
0.001419093457464623,-0.0020134253420843224,0.0038891997773415348,-0.03529315308841923,-0.0031003981115469486
0.0016867427090040672,-0.0033038835135005386,0.006629032429997814,-0.02473544329682065,-0.0043260290310780936
0.0019519615495218621,-0.004594764066556206,0.009361433193269063,-0.013832839644538577,-0.004474785275090115
0.0022137249031455525,-0.005873363664864592,0.012025752867640032,-0.0029775731600888027,-0.003464479324180374
0.002470972105468712,-0.0071271114792484805,0.014560748712896622,0.007461934010354775,-0.001569633416214415
0.002722606621491916,-0.008343699950774419,0.01690600889160917,0.01715005600027304,0.0005111212401922186
0.002967490088913246,-0.009511220614385559,0.01900337715849147,0.02578945903092567,0.0019198505661085262
0.0032044347955316804,-0.010618296458143781,0.02079835081497725,0.03312745768141233,0.0021469194196724094
0.0034322004404291817,-0.011654199509742473,0.02224142823674047,0.03896642606368149,0.0014090666529646535
0.003649498693671352,-0.012608946702760975,0.023289378852305052,0.043177306151276344,0.000545243714933494
0.003855004783755769,-0.013473374783684985,0.0239064022605537,0.0457113496599758,0.00042933801135513664
0.004047372531407236,-0.014239200081353222,0.024065140494383908,0.04660453024893134,0.0013055099734831772
0.0042252497820165205,-0.014899068160488133,0.023747511617750853,0.04597193007251168,0.002559979577592209
0.004387294045894757,-0.015446593562586758,0.022945341914691657,0.04399353668777672,0.0031347513336638932
0.004532190574594101,-0.01587638583174892,0.021660782753382103,0.040895376306833264,0.0022960455349049394
0.004658675022481413,-0.016184058379760217,0.019906502954732307,0.03692955342124935,0.00018846120955989717
0.004765560493447639,-0.01636622100061959,0.01770564851904442,0.03235472841620131,-0.0022353475695590505
0.004851766208357441,-0.01642046137873655,0.015091562530950694,0.027417061751687396,-0.0038466879599393607
0.00491634425771776,-0.016345322261015892,0.012107262503432714,0.022331988561194845,-0.004059090238178397
0.004958502302355247,-0.016140278474177504,0.008804680848063953,0.017268806288949945,-0.003120403360563178
0.004977622323747125,-0.015805714024909538,0.00524368395824524,0.012341244866125053,-0.001813487241965323
0.004973276829852806,-0.01534289722464939,0.0014908931579467315,0.007606607268072185,-0.0008435008903692314
0.004945243465957361,-0.01475395254645408,-0.0023816651359467988,0.0030738007891178806,-0.00038827174173382343
0.004893517346562259,-0.014041830696157357,-0.0062980512932476465,-0.0012820523856305038,-0.00011490186076968462
0.004818318985689797,-0.013210280756800833,-0.010180016528048804,-0.005502232252250902,0.00041452989311038867
0.004720095583788418,-0.0122638283030273,-0.013948686473602074,-0.00962777463281078,0.0013084768247550785
0.004599514823106775,-0.011207760791532975,-0.01752628691817891,-0.013685468355325041,0.0022277933763038
0.004457452470352833,-0.010048117691930787,-0.020837869282643945,-0.017676684234031043,0.0026557953202514823
0.004294976755049983,-0.008791679903848035,-0.023812990343743887,-0.02156849643880563,0.002322933367071445
0.004113332650437007,-0.007445952798423804,-0.026387301515232997,-0.025287209910109864,0.0014432119015066495
0.003913927576599537,-0.006019140114023729,-0.02850400805044053,-0.028715887036220147,0.000573236493843925
0.003698317450788941,-0.004520110504265592,-0.030115166220661665,-0.031698548722182904,0.0001954200853781404
0.0034681899393084015,-0.0029583621099561327,-0.03118279391574065,-0.03405321557763575,0.0003389187616566158
0.003225341611472215,-0.0013439906990068274,-0.03167977456426155,-0.03559351675536814,0.0005339817020881176
0.0029716477580055156,0.0003123367623337564,-0.03159053522442494,-0.03615518209071734,0.00015974446431823219
0.0027090267470129986,0.0019994066698737533,-0.030911479303771198,-0.03562120481075589,-0.0010445323790119864
0.002439402995117686,0.0037054887694369086,-0.029651156164965962,-0.03393943448310441,-0.002674503162380627
0.002164672563491154,0.005418378555300997,-0.027830156232356608,-0.031129043258431268,-0.003813191596430646
0.0018866733157517379,0.0071254552293375404,-0.0254807304391315,-0.027276234445291304,-0.003582892029230971
0.001607159206112541,0.008813754041170102,-0.022646143613156262,-0.022522543382891638,-0.0017468705473467926
0.0013277773943761266,0.01047005012508578,-0.01937977924201029,-0.0170497440464491,0.001052161673018956
0.001050047955534862,0.01208095261261312,-0.015744017034714616,-0.011064072081443636,0.0036036752959249263
0.0007753477769636219,0.013633010730623256,-0.011808906852092698,-0.004780821188859629,0.004807876620597314
0.0005049010887135388,0.01511283479438547,-0.00765066591468681,0.0015901835084644364,0.00428385388787144
0.0002397781884157747,0.016507233185847407,-0.0033500319509576605,0.007857060121524538,0.0025181485652058188
-1.909793030612096e-05,0.017803362952033643,0.001009488423519539,0.013854343529646181,0.0004838962735093539
-0.0002709386875222496,0.0189888891462636,0.005343432086602354,0.019445823257836326,-0.000981128749154205
-0.0005150724774888204,0.020052147811269808,0.009568207215234048,0.02452163365041304,-0.0016115393576437835
-0.0007509237324485937,0.02098230860555328,0.013602892303536175,0.02899120186749436,-0.0017112181895594582
-0.0009779893310173846,0.021769533461199822,0.017370963645554544,0.03277444030375602,-0.0017873346763502803
-0.001195813961453555,0.022405126437506532,0.02080190938915225,0.03579322017055403,-0.0021348938808931667
-0.001403967112964018,0.02288166831074043,0.02383268970537417,0.037964491034679686,-0.0026631689327208667
-0.0016020245398945588,0.023193129458455867,0.02640900665680793,0.039196280511995696,-0.0030282172771661795
-0.0017895559174703412,0.02333495691825637,0.02848635453681219,0.03938817090930791,-0.0029073049511653083
-0.0019661188705389927,0.023304134544446495,0.030030829984381644,0.03843777883074975,-0.002194533937509078
-0.002131258957843645,0.023099216601070095,0.031019688445123324,0.03625348848278819,-0.001017952281831102
-0.0022845159431632484,0.02272033422615176,0.031441638659588225,0.032771581004619764,0.0003631633049179403
-0.0024254376905209285,0.022169172883058003,0.031296871615880906,0.027974348815128176,0.0016669466269070615
-0.0025536026310985717,0.021448920011446847,0.03059682754832265,0.021905960658373736,0.002653054061240104
-0.002668649382225142,0.020564186530048517,0.02936371484516545,0.014684521342645454,0.003172021653394148
-0.0027703090134043474,0.01952091135972927,0.02762980557510549,0.006510372267309948,0.0032282256041174903
-0.002858433843145999,0.018326260900246014,0.02543653960177887,-0.0023293552271592727,0.0030126299541770396
-0.002933017791817228,0.016988533241308165,0.0228334705765964,-0.011461657985619138,0.0028222558978338533
-0.0029942064481102205,0.015517071231216147,0.019877083939105946,-0.02043758554681318,0.0028543580858603917
-0.0030422979549460994,0.01392218321042365,0.016629513461170208,-0.028754597373625276,0.0029992200204568306
-0.0030777368118992494,0.012215068336746399,0.013157182142460153,-0.03589210022066606,0.0028189441999679965
-0.003101101724943679,0.010407744961967854,0.009529395448612884,-0.04135693363734059,0.0017966478527222246
-0.0031130872285066364,0.008512982810788718,0.005816917265695167,-0.04473245217386121,-0.00027187898994220864
-0.00311447847098768,0.006544240147719841,0.002090558834542585,-0.04572397100095329,-0.0030184916513108406
-0.003106119492098827,0.004515605380225757,-0.0015801919758390594,-0.04419445626094851,-0.00558966227770428
-0.00308887650426243,0.0024417404380925284,-0.0051284774818663335,-0.04018621081097922,-0.0070569863693071225
-0.0030635981197683244,0.0003378225283693471,-0.008491292305455412,-0.03392599921839104,-0.0068954390439142565
-0.0030310742203220244,-0.0017805186526253967,-0.011610601884671763,-0.02581263419443892,-0.005229749844973778
-0.002991995198035388,-0.003897271105126953,-0.014434341000547224,-0.016388040408457673,-0.002721668258423995
-0.0029469142214192424,-0.00599612235453367,-0.016917280143883297,-0.006295187459418606,-0.00021287456723394156
-0.002896216383010982,-0.008060558923782029,-0.01902175219846704,0.0037718958985010014,0.001637286028949505
-0.0028400986681734507,-0.010073989166710364,-0.02071823449241659,0.013120592245214337,0.002541691047910099
-0.002778562883711008,-0.0120198916025612,-0.021985780475514444,0.02111059523225371,0.002581989416652095
-0.002711420850258221,-0.013881985580136527,-0.02281229277291279,0.02720087366299175,0.002096037861192524
-0.0026383092164494757,-0.015644417433615804,-0.023194628686120336,0.030990812715755586,0.0015323718549424623
-0.0025587115145289845,-0.017291955541540203,-0.02313853271667395,0.032252591175358704,0.0012893736529080277
-0.0024719870007007118,-0.018810190870746656,-0.02265839729846204,0.03095058151852279,0.0015468199687842877
-0.002377407400573918,-0.020185742169369594,-0.021776858928915163,0.027243909713886506,0.0021537944942709507
-0.002274202211444161,-0.021406464052055277,-0.02052423919609038,0.021470953892739463,0.002675548976295568
-0.002161610842207802,-0.022461652113038626,-0.018937839096644225,0.014118272829532054,0.002634893367925124
-0.002038937449364909,-0.023342235169788193,-0.017061093892271166,0.005779082693978832,0.0018317594950552365
